voltage_mV
-0.06
-0.06
-0.06
-0.061
-0.058
-0.06
-0.075
0.012
0.072
0.051
0.05
0.044
0.024
0.013
0.016
0.02
0.038
0.067
0.073
0.055
0.04
0.029
0.01
0.041
0.082
0.035
-0.021
0.028
0.063
0.07
0.125
0.091
0.036
0.032
0.07
0.09
0.075
0.13
0.161
0.137
0.15
0.169
0.156
0.125
0.117
0.145
0.174
0.155
0.118
0.087
0.065
0.087
0.116
0.146
0.186
0.22
0.21
0.194
0.186
0.178
0.17
0.167
0.156
0.146
0.137
0.125
0.116
0.11
0.095
0.058
0.045
0.137
0.159
0.14
0.139
0.13
0.126
0.116
0.105
0.107
0.13
0.161
0.122
0.052
0.007
-0.015
-0.008
0.098
0.053
-0.066
0.03
0.104
0.067
-0.013
-0.001
0.095
0.067
0.049
0.055
0.05
0.055
0.055
0.021
0.003
0.011
0.005
0.004
0.008
-0.006
-0.028
-0.025
-0.02
-0.021
-0.017
-0.016
-0.035
-0.065
-0.04
-0.03
-0.061
-0.06
-0.021
-0.017
-0.029
-0.031
-0.04
-0.047
-0.021
0.048
0.056
-0.03
-0.011
0.017
0.023
0.033
0.04
0.039
0.046
0.05
0.051
0.05
0.018
-0.002
-0.007
0.026
0.065
-0.036
-0.039
0.033
0.044
0.005
0.021
0.049
0.039
0.028
0.065
0.093
0.124
0.136
0.128
0.125
0.117
0.109
0.1
0.095
0.085
0.057
0.105
0.159
0.165
0.195
0.299
0.384
0.449
0.524
0.585
0.619
0.751
0.851
0.864
0.87
0.799
0.735
0.63
0.463
0.28
0.051
-0.109
-0.171
-0.207
-0.245
-0.21
-0.188
-0.177
-0.136
-0.08
-0.059
-0.039
-0.028
-0.031
-0.03
-0.032
-0.043
-0.008
0.032
-0.04
-0.17
-0.052
0.043
-0.026
-0.045
-0.025
-0.014
-0.017
-0.012
-0.005
-0.033
-0.05
-0.049
-0.052
-0.045
0.019
0.028
0.008
0.004
-0.005
-0.017
-0.026
-0.034
-0.042
-0.04
-0.007
0.006
0.006
0.011
0.015
0.031
0.108
0.093
0.018
0.055
0.087
0.087
0.071
0.058
0.055
0.055
0.052
0.047
0.027
0.005
0.045
0.069
0.085
0.102
0.095
0.087
0.112
0.127
0.118
0.115
0.111
0.106
0.106
0.111
0.115
0.115
0.117
0.123
0.125
0.125
0.137
0.147
0.152
0.157
0.16
0.15
0.163
0.168
0.151
0.14
0.128
0.119
0.111
0.103
0.095
0.095
0.161
0.174
0.102
0.065
0.086
0.082
0.06
0.048
0.035
0.009
0.008
0.052
0.087
0.065
0.058
0.066
0.056
0.073
0.13
0.087
0.035
-0.007
-0.022
0.005
-0.019
-0.089
-0.071
-0.001
-0.015
-0.02
0.008
0.005
-0.024
-0.025
-0.033
-0.04
-0.054
-0.056
-0.035
-0.053
-0.074
-0.087
-0.114
-0.125
-0.045
-0.028
-0.044
-0.048
-0.065
-0.058
-0.053
-0.043
-0.037
-0.05
-0.039
-0.029
-0.033
-0.033
-0.02
-0.015
-0.015
-0.014
-0.017
-0.03
-0.037
-0.054
-0.075
-0.086
-0.08
-0.066
-0.066
-0.042
-0.022
-0.045
-0.022
-0.008
-0.03
-0.052
-0.045
-0.036
-0.035
-0.034
-0.028
-0.02
-0.02
-0.018
-0.012
-0.002
0.01
0.018
0.03
0.037
0.043
0.06
0.068
0.082
0.096
0.109
0.13
0.17
0.275
0.334
0.369
0.49
0.594
0.705
0.773
0.817
0.875
0.823
0.77
0.704
0.561
0.36
0.163
-0.02
-0.118
-0.158
-0.21
-0.19
-0.158
-0.164
-0.19
-0.175
-0.1
-0.073
-0.073
-0.072
-0.09
-0.099
-0.106
-0.114
-0.122
-0.13
-0.14
-0.128
-0.068
-0.015
-0.03
-0.039
-0.042
-0.048
-0.058
-0.065
-0.067
-0.086
-0.047
0.01
-0.01
-0.019
-0.026
-0.05
-0.064
-0.035
0.008
0.021
0.021
0.026
0.03
0.034
0.038
0.041
0.04
0.035
0.025
0.036
0.051
0.075
0.11
0.085
0.05
0.036
0.044
0.07
0.093
0.087
0.061
0.043
0.035
0.01
0.04
0.092
0.076
0.02
0.069
0.107
0.111
0.109
0.105
0.107
0.095
0.122
0.129
0.055
0.062
0.083
0.068
0.049
0.065
0.082
0.091
0.116
0.108
0.08
0.202
0.215
0.155
0.129
0.105
0.082
0.087
0.1
0.108
0.125
0.136
0.122
0.101
0.086
0.065
0.042
0.047
0.061
0.066
0.075
0.092
0.063
0.022
-0.027
-0.09
-0.073
-0.053
-0.045
-0.031
-0.005
0.03
0.032
0.023
0.017
-0.015
-0.052
-0.008
0.024
0.0
-0.01
-0.022
-0.031
-0.042
-0.078
-0.13
-0.124
-0.018
0.026
-0.018
-0.025
-0.03
-0.06
-0.081
-0.079
-0.08
-0.088
-0.058
-0.035
-0.041
-0.04
-0.049
-0.045
-0.036
-0.027
-0.02
-0.028
-0.033
-0.039
-0.036
-0.01
0.012
0.019
0.021
0.027
0.03
0.013
0.007
-0.017
-0.067
-0.105
-0.112
-0.096
-0.076
-0.062
-0.045
-0.024
-0.014
-0.004
-0.002
0.0
0.055
0.097
0.077
0.066
0.09
-0.003
-0.075
-0.055
0.011
0.06
0.074
0.081
0.089
0.098
0.11
0.118
0.126
0.115
0.099
0.125
0.2
0.274
0.352
0.451
0.535
0.577
0.721
0.844
0.886
0.93
0.925
0.866
0.732
0.55
0.365
0.155
-0.024
-0.172
-0.253
-0.235
-0.225
-0.221
-0.206
-0.203
-0.225
-0.226
-0.225
-0.207
-0.172
-0.15
-0.138
-0.128
-0.127
-0.148
-0.155
-0.07
0.01
0.02
-0.014
-0.03
-0.013
-0.014
-0.021
-0.03
-0.055
-0.066
-0.097
-0.172
-0.178
-0.055
-0.001
0.026
0.018
-0.015
-0.02
-0.025
-0.02
-0.01
-0.004
0.0
0.008
0.014
0.016
0.023
0.04
0.059
0.055
0.063
0.056
0.015
0.047
0.057
0.046
0.044
0.04
0.038
0.019
0.007
0.011
0.02
0.048
0.038
0.034
0.054
0.06
0.059
0.066
0.073
0.076
0.08
0.092
0.105
0.114
0.123
0.135
0.143
0.154
0.148
0.133
0.135
0.135
0.138
0.14
0.141
0.15
0.157
0.137
0.105
0.088
0.1
0.123
0.049
0.023
0.1
0.15
0.14
0.127
0.123
0.111
0.095
0.091
0.084
0.077
0.074
0.065
0.041
0.017
-0.009
-0.027
-0.025
-0.02
-0.023
-0.023
-0.02
-0.025
-0.03
-0.03
-0.032
-0.036
-0.04
-0.044
-0.044
-0.035
-0.039
-0.065
-0.083
-0.149
-0.11
-0.078
-0.18
-0.034
0.002
-0.048
-0.067
-0.105
-0.13
-0.145
-0.106
-0.08
-0.14
-0.162
-0.174
-0.117
-0.042
-0.06
-0.069
-0.076
-0.08
-0.073
-0.07
-0.07
-0.037
-0.016
-0.02
-0.015
-0.023
-0.029
-0.031
-0.028
-0.035
-0.089
-0.073
-0.072
-0.101
-0.08
-0.093
-0.083
-0.044
-0.034
-0.065
-0.055
-0.039
-0.032
-0.012
-0.005
-0.091
-0.089
-0.025
0.003
0.0
0.003
-0.023
-0.034
-0.017
-0.01
-0.002
0.007
0.011
0.027
0.03
-0.059
-0.033
0.067
0.106
0.1
0.157
0.225
0.317
0.442
0.565
0.675
0.733
0.787
0.901
1.005
0.922
0.815
0.751
0.631
0.4
0.192
0.041
-0.142
-0.289
-0.3
-0.333
-0.299
-0.226
-0.183
-0.165
-0.148
-0.143
-0.146
-0.144
-0.14
-0.14
-0.141
-0.138
-0.135
-0.135
-0.135
-0.132
-0.129
-0.131
-0.13
-0.12
-0.191
-0.13
0.005
-0.03
-0.049
-0.057
-0.058
-0.075
-0.105
-0.051
-0.041
-0.064
-0.071
-0.08
-0.107
-0.097
-0.049
-0.017
-0.03
-0.04
-0.035
-0.025
-0.019
-0.015
-0.01
-0.019
-0.044
-0.044
0.01
0.061
0.053
0.034
0.017
-0.02
-0.021
0.008
-0.009
-0.049
-0.045
-0.072
-0.093
-0.06
0.004
0.035
0.032
0.057
0.038
0.007
0.07
0.129
0.101
0.109
0.127
0.06
0.075
0.103
0.084
0.058
0.065
0.061
0.062
0.065
0.066
0.07
0.07
0.073
0.076
0.075
0.075
0.079
0.08
0.082
0.085
0.085
0.089
0.093
0.081
0.052
0.025
0.023
0.037
0.082
0.054
-0.08
-0.049
0.006
0.016
0.016
0.02
-0.002
-0.035
-0.046
-0.038
-0.035
-0.031
-0.027
-0.023
-0.019
-0.015
-0.025
-0.085
-0.11
-0.068
-0.05
-0.109
-0.118
-0.114
-0.133
-0.135
-0.148
-0.146
-0.134
-0.13
-0.145
-0.164
-0.086
-0.056
-0.128
-0.165
-0.142
-0.128
-0.132
-0.127
-0.11
-0.102
-0.058
-0.042
-0.063
-0.065
-0.073
-0.075
-0.044
-0.013
-0.03
-0.047
-0.061
-0.079
-0.084
-0.085
-0.136
-0.178
-0.168
-0.141
-0.14
-0.138
-0.119
-0.092
-0.079
-0.07
-0.033
-0.05
-0.096
-0.117
-0.13
-0.152
-0.045
0.032
0.011
0.01
0.006
0.006
-0.003
-0.034
-0.055
-0.011
0.049
0.067
0.06
0.06
0.026
0.023
0.065
0.106
0.12
0.168
0.272
0.348
0.414
0.55
0.679
0.736
0.803
0.92
0.99
0.931
0.888
0.767
0.564
0.39
0.144
-0.09
-0.232
-0.281
-0.295
-0.319
-0.295
-0.233
-0.205
-0.235
-0.245
-0.212
-0.189
-0.19
-0.185
-0.177
-0.172
-0.168
-0.164
-0.16
-0.156
-0.152
-0.148
-0.144
-0.14
-0.141
-0.13
-0.109
-0.101
-0.135
-0.203
-0.149
-0.056
-0.028
-0.035
-0.031
-0.03
-0.027
-0.036
-0.065
-0.058
-0.054
-0.054
-0.049
-0.045
-0.041
-0.038
-0.044
-0.024
0.025
0.016
-0.003
-0.002
0.015
0.02
-0.014
-0.019
-0.004
0.0
0.0
0.008
-0.021
-0.032
-0.029
-0.06
-0.048
-0.013
0.004
0.016
0.035
-0.002
-0.042
-0.031
0.026
0.065
0.037
0.029
0.038
0.042
0.055
0.064
0.067
0.076
0.078
0.055
0.027
0.034
0.053
0.063
0.075
0.087
0.098
0.115
0.115
0.075
0.048
0.041
0.038
0.035
0.035
0.029
0.007
0.003
0.035
0.045
-0.03
-0.049
-0.039
-0.046
-0.045
-0.048
-0.059
-0.07
-0.077
-0.085
-0.093
-0.098
-0.102
-0.106
-0.11
-0.114
-0.117
-0.127
-0.134
-0.125
-0.123
-0.102
-0.085
-0.084
-0.065
-0.036
-0.122
-0.181
-0.164
-0.17
-0.138
-0.084
-0.075
-0.108
-0.13
-0.142
-0.154
-0.148
-0.124
-0.12
-0.148
-0.131
-0.11
-0.116
-0.115
-0.107
-0.104
-0.106
-0.104
-0.095
-0.077
-0.084
-0.104
-0.11
-0.1
-0.09
-0.099
-0.107
-0.104
-0.1
-0.097
-0.122
-0.169
-0.197
-0.18
-0.148
-0.116
-0.084
-0.062
-0.07
-0.097
-0.095
-0.091
-0.104
-0.115
-0.121
-0.148
-0.16
-0.147
-0.135
-0.097
-0.05
-0.048
-0.064
-0.035
-0.018
-0.006
0.006
0.017
0.025
0.032
0.045
0.054
0.082
0.145
0.194
0.275
0.371
0.456
0.54
0.629
0.74
0.842
0.916
0.94
0.873
0.817
0.714
0.514
0.27
0.031
-0.141
-0.263
-0.336
-0.34
-0.32
-0.303
-0.285
-0.258
-0.23
-0.201
-0.152
-0.184
-0.243
-0.205
-0.181
-0.141
-0.077
-0.043
-0.105
-0.258
-0.322
-0.191
-0.067
-0.12
-0.097
-0.097
-0.066
-0.01
-0.035
-0.065
-0.079
-0.079
-0.082
-0.09
-0.085
-0.125
-0.112
-0.052
-0.055
-0.056
-0.055
-0.054
-0.048
-0.04
-0.031
-0.03
-0.028
-0.026
-0.035
-0.044
-0.047
-0.041
-0.042
-0.05
-0.026
-0.014
0.0
-0.019
-0.09
-0.074
-0.023
-0.042
-0.072
-0.045
-0.096
-0.088
-0.052
-0.042
-0.03
-0.024
-0.001
0.012
0.012
0.04
0.075
0.009
-0.036
0.007
0.015
-0.056
-0.036
0.055
0.079
0.025
0.034
0.048
0.055
0.068
0.075
0.086
0.102
0.084
0.05
0.05
0.044
0.021
0.005
0.005
0.005
0.005
0.002
-0.001
0.001
0.0
-0.012
-0.019
-0.021
-0.027
-0.035
-0.039
-0.043
-0.047
-0.051
-0.055
-0.059
-0.063
-0.068
-0.07
-0.07
-0.08
-0.076
-0.129
-0.189
-0.15
-0.114
-0.11
-0.118
-0.12
-0.12
-0.128
-0.134
-0.153
-0.18
-0.17
-0.124
-0.175
-0.197
-0.11
-0.04
-0.072
-0.111
-0.141
-0.171
-0.185
-0.186
-0.181
-0.183
-0.192
-0.19
-0.171
-0.148
-0.137
-0.133
-0.125
-0.125
-0.124
-0.11
-0.074
-0.05
-0.095
-0.107
-0.098
-0.091
-0.085
-0.129
-0.156
-0.132
-0.119
-0.165
-0.193
-0.191
-0.178
-0.168
-0.165
-0.163
-0.144
-0.134
-0.123
-0.08
-0.057
-0.09
-0.148
-0.159
-0.095
-0.037
-0.029
-0.039
-0.04
-0.04
-0.044
-0.046
-0.043
-0.057
-0.075
-0.021
0.025
0.058
0.092
0.135
0.231
0.314
0.39
0.467
0.55
0.69
0.75
0.878
1.0
0.91
0.845
0.764
0.619
0.396
0.125
-0.096
-0.277
-0.358
-0.362
-0.38
-0.38
-0.352
-0.32
-0.293
-0.265
-0.243
-0.199
-0.144
-0.137
-0.205
-0.272
-0.279
-0.264
-0.259
-0.255
-0.247
-0.241
-0.239
-0.233
-0.22
-0.208
-0.196
-0.185
-0.17
-0.155
-0.162
-0.167
-0.16
-0.137
-0.11
-0.113
-0.113
-0.109
-0.11
-0.105
-0.1
-0.1
-0.098
-0.095
-0.095
-0.083
-0.073
-0.068
-0.064
-0.06
-0.062
-0.079
-0.05
-0.007
-0.035
-0.059
-0.049
-0.022
-0.027
-0.065
-0.071
-0.106
-0.113
-0.061
-0.025
-0.046
-0.039
-0.014
0.006
0.025
0.021
0.021
0.028
0.029
0.025
0.029
0.033
0.036
0.024
0.0
0.011
0.022
0.028
0.038
0.05
0.054
0.062
0.066
0.074
0.08
0.026
-0.023
-0.025
0.003
0.025
0.018
0.01
0.012
0.016
0.02
0.024
0.027
0.021
0.023
0.015
-0.069
-0.086
-0.058
-0.058
-0.08
-0.089
-0.096
-0.102
-0.107
-0.12
-0.127
-0.107
-0.075
-0.066
-0.08
-0.084
-0.093
-0.105
-0.112
-0.12
-0.127
-0.149
-0.195
-0.22
-0.195
-0.177
-0.17
-0.127
-0.151
-0.27
-0.193
-0.159
-0.188
-0.195
-0.185
-0.174
-0.193
-0.209
-0.203
-0.2
-0.2
-0.199
-0.189
-0.179
-0.185
-0.193
-0.163
-0.106
-0.08
-0.1
-0.101
-0.097
-0.091
-0.084
-0.08
-0.074
-0.121
-0.149
-0.13
-0.125
-0.134
-0.129
-0.129
-0.161
-0.195
-0.177
-0.157
-0.139
-0.115
-0.09
-0.055
-0.124
-0.173
-0.151
-0.145
-0.114
-0.09
-0.113
-0.142
-0.13
-0.13
-0.124
-0.12
-0.108
-0.065
-0.026
-0.014
-0.015
-0.017
-0.035
-0.058
-0.013
0.056
0.108
0.165
0.238
0.332
0.426
0.537
0.665
0.736
0.801
0.896
0.935
0.865
0.818
0.669
0.469
0.28
0.075
-0.103
-0.226
-0.29
-0.332
-0.37
-0.357
-0.335
-0.314
-0.289
-0.27
-0.255
-0.228
-0.193
-0.163
-0.16
-0.206
-0.186
-0.194
-0.238
-0.215
-0.206
-0.194
-0.176
-0.161
-0.155
-0.166
-0.145
-0.123
-0.119
-0.11
-0.105
-0.104
-0.09
-0.072
-0.07
-0.073
-0.081
-0.087
-0.092
-0.1
-0.096
-0.094
-0.095
-0.095
-0.095
-0.087
-0.085
-0.083
-0.08
-0.08
-0.064
-0.049
-0.013
-0.037
-0.14
-0.1
-0.071
-0.075
-0.05
-0.015
-0.047
-0.091
-0.095
-0.059
-0.035
-0.062
-0.046
-0.01
0.001
0.005
0.013
0.02
0.032
0.023
-0.015
-0.013
-0.008
-0.011
-0.009
-0.005
0.0
-0.001
0.005
0.017
0.02
0.028
0.036
0.043
0.053
0.06
0.043
0.037
0.011
-0.025
-0.025
-0.028
-0.033
-0.037
-0.041
-0.045
-0.045
-0.045
-0.045
-0.045
-0.045
-0.044
-0.05
-0.059
-0.067
-0.075
-0.083
-0.091
-0.1
-0.105
-0.105
-0.109
-0.11
-0.113
-0.113
-0.1
-0.091
-0.086
-0.072
-0.076
-0.11
-0.111
-0.114
-0.142
-0.169
-0.175
-0.19
-0.171
-0.128
-0.102
-0.105
-0.105
-0.109
-0.107
-0.109
-0.15
-0.209
-0.197
-0.146
-0.123
-0.13
-0.134
-0.141
-0.147
-0.151
-0.155
-0.148
-0.131
-0.109
-0.1
-0.105
-0.1
-0.109
-0.114
-0.092
-0.085
-0.133
-0.06
-0.061
-0.178
-0.21
-0.208
-0.193
-0.179
-0.175
-0.17
-0.138
-0.112
-0.1
-0.104
-0.125
-0.146
-0.219
-0.188
-0.085
-0.085
-0.074
-0.061
-0.048
-0.04
-0.05
-0.055
-0.057
-0.064
-0.071
-0.075
-0.08
-0.072
-0.058
-0.048
-0.035
-0.006
0.044
0.077
0.115
0.195
0.259
0.332
0.453
0.592
0.705
0.815
0.836
0.85
0.847
0.745
0.659
0.541
0.364
0.132
-0.105
-0.242
-0.325
-0.375
-0.42
-0.47
-0.447
-0.399
-0.349
-0.307
-0.285
-0.258
-0.225
-0.197
-0.166
-0.15
-0.199
-0.176
-0.094
-0.07
-0.115
-0.107
-0.09
-0.143
-0.199
-0.18
-0.192
-0.185
-0.139
-0.127
-0.175
-0.164
-0.134
-0.136
-0.134
-0.105
-0.132
-0.178
-0.158
-0.108
-0.11
-0.102
-0.097
-0.091
-0.084
-0.08
-0.071
-0.074
-0.069
-0.051
-0.035
-0.015
-0.001
-0.003
-0.012
-0.02
-0.026
-0.02
-0.044
-0.097
-0.115
-0.086
-0.111
-0.099
-0.059
-0.075
-0.027
-0.001
0.035
0.027
-0.07
-0.02
0.065
0.071
0.042
0.055
0.064
0.07
0.081
0.073
0.03
0.006
0.012
0.025
0.032
0.04
0.05
0.042
0.032
0.029
0.02
0.012
0.004
-0.002
-0.006
-0.01
-0.012
-0.031
-0.041
-0.033
-0.03
-0.026
-0.024
-0.025
-0.016
-0.02
-0.094
-0.09
-0.019
-0.021
-0.115
-0.113
-0.094
-0.098
-0.107
-0.115
-0.12
-0.114
-0.108
-0.104
-0.1
-0.111
-0.129
-0.168
-0.187
-0.14
-0.103
-0.101
-0.092
-0.117
-0.195
-0.173
-0.135
-0.148
-0.172
-0.17
-0.194
-0.207
-0.203
-0.209
-0.22
-0.192
-0.147
-0.154
-0.19
-0.19
-0.193
-0.202
-0.205
-0.206
-0.205
-0.173
-0.118
-0.1
-0.118
-0.12
-0.121
-0.112
-0.117
-0.149
-0.175
-0.162
-0.135
-0.151
-0.176
-0.155
-0.152
-0.167
-0.197
-0.225
-0.22
-0.184
-0.154
-0.14
-0.133
-0.125
-0.129
-0.131
-0.13
-0.13
-0.13
-0.13
-0.129
-0.134
-0.14
-0.135
-0.135
-0.132
-0.131
-0.127
-0.115
-0.118
-0.086
-0.054
-0.031
0.015
0.038
0.052
0.132
0.215
0.24
0.371
0.509
0.585
0.671
0.81
0.852
0.87
0.866
0.795
0.645
0.436
0.248
0.033
-0.195
-0.31
-0.315
-0.406
-0.431
-0.34
-0.275
-0.198
-0.181
-0.21
-0.208
-0.185
-0.244
-0.248
-0.219
-0.206
-0.185
-0.162
-0.169
-0.189
-0.204
-0.225
-0.242
-0.209
-0.138
-0.124
-0.185
-0.152
-0.095
-0.093
-0.119
-0.115
-0.102
-0.102
-0.107
-0.111
-0.115
-0.117
-0.135
-0.15
-0.121
-0.06
-0.053
-0.053
-0.048
-0.044
-0.04
-0.044
-0.045
-0.047
-0.051
-0.05
-0.047
-0.038
-0.036
-0.04
-0.045
-0.069
-0.085
-0.081
-0.076
-0.09
-0.109
-0.129
-0.104
-0.066
-0.075
-0.065
-0.047
-0.049
-0.045
-0.01
0.005
0.004
0.026
0.035
-0.005
-0.007
-0.004
-0.005
-0.006
-0.01
-0.01
-0.014
-0.013
-0.01
-0.015
-0.011
-0.009
-0.012
-0.015
-0.015
-0.019
-0.021
-0.019
-0.022
-0.03
-0.027
-0.022
-0.018
-0.014
-0.01
-0.005
-0.011
-0.016
-0.015
-0.02
-0.022
-0.013
-0.059
-0.107
-0.075
-0.078
-0.079
-0.106
-0.172
-0.195
-0.112
-0.088
-0.107
-0.111
-0.115
-0.118
-0.127
-0.131
-0.13
-0.135
-0.147
-0.156
-0.165
-0.17
-0.165
-0.157
-0.148
-0.147
-0.159
-0.175
-0.191
-0.209
-0.217
-0.214
-0.215
-0.233
-0.231
-0.222
-0.219
-0.215
-0.213
-0.229
-0.231
-0.211
-0.2
-0.189
-0.171
-0.163
-0.138
-0.11
-0.175
-0.1
-0.084
-0.171
-0.15
-0.131
-0.172
-0.247
-0.217
-0.065
-0.07
-0.157
-0.201
-0.183
-0.155
-0.144
-0.12
-0.125
-0.137
-0.095
-0.053
-0.065
-0.086
-0.085
-0.09
-0.094
-0.098
-0.102
-0.106
-0.11
-0.11
-0.11
-0.11
-0.11
-0.105
-0.096
-0.094
-0.078
-0.039
0.015
0.079
0.108
0.162
0.276
0.375
0.399
0.521
0.703
0.81
0.825
0.847
0.842
0.8
0.703
0.535
0.336
0.1
-0.115
-0.295
-0.435
-0.438
-0.414
-0.408
-0.384
-0.31
-0.234
-0.263
-0.279
-0.237
-0.225
-0.209
-0.193
-0.177
-0.17
-0.175
-0.167
-0.166
-0.16
-0.157
-0.17
-0.163
-0.153
-0.164
-0.174
-0.155
-0.153
-0.16
-0.155
-0.16
-0.18
-0.151
-0.147
-0.159
-0.161
-0.165
-0.169
-0.173
-0.177
-0.153
-0.125
-0.201
-0.205
-0.162
-0.13
-0.055
0.041
-0.078
-0.106
0.002
-0.04
-0.077
-0.042
-0.031
-0.068
-0.075
-0.056
-0.037
-0.024
-0.057
-0.13
-0.113
-0.095
-0.077
-0.042
-0.02
-0.023
-0.03
-0.026
-0.019
-0.02
-0.016
-0.014
-0.015
-0.014
-0.01
-0.003
0.01
0.018
0.022
0.03
0.037
0.048
0.031
0.009
0.02
0.021
0.019
0.021
0.019
0.02
0.029
-0.009
-0.036
-0.029
-0.035
-0.036
-0.033
-0.041
-0.043
-0.055
-0.144
-0.162
-0.146
-0.15
-0.145
-0.14
-0.102
-0.023
-0.016
-0.12
-0.126
-0.117
-0.121
-0.121
-0.125
-0.125
-0.124
-0.128
-0.138
-0.145
-0.132
-0.106
-0.138
-0.183
-0.15
-0.131
-0.166
-0.19
-0.184
-0.19
-0.195
-0.194
-0.201
-0.211
-0.21
-0.218
-0.226
-0.234
-0.242
-0.245
-0.243
-0.261
-0.287
-0.295
-0.285
-0.28
-0.28
-0.264
-0.241
-0.225
-0.179
-0.101
-0.121
-0.158
-0.105
-0.202
-0.268
-0.25
-0.203
-0.16
-0.133
-0.098
-0.101
-0.145
-0.165
-0.147
-0.12
-0.122
-0.153
-0.18
-0.193
-0.167
-0.142
-0.131
-0.115
-0.118
-0.125
-0.123
-0.12
-0.125
-0.125
-0.128
-0.131
-0.13
-0.13
-0.131
-0.121
-0.112
-0.109
-0.1
-0.091
-0.088
-0.062
-0.023
0.0
0.047
0.132
0.21
0.281
0.375
0.474
0.614
0.693
0.787
0.97
0.937
0.871
0.806
0.658
0.44
0.263
0.104
-0.181
-0.416
-0.38
-0.376
-0.344
-0.277
-0.261
-0.305
-0.289
-0.258
-0.232
-0.202
-0.17
-0.152
-0.182
-0.205
-0.2
-0.205
-0.201
-0.197
-0.192
-0.182
-0.165
-0.149
-0.166
-0.173
-0.156
-0.145
-0.14
-0.143
-0.163
-0.182
-0.175
-0.174
-0.177
-0.185
-0.19
-0.185
-0.182
-0.17
-0.149
-0.15
-0.195
-0.233
-0.216
-0.177
-0.148
-0.11
-0.066
-0.093
-0.104
-0.058
-0.035
-0.058
-0.043
-0.012
0.003
-0.015
-0.083
-0.034
-0.037
-0.114
-0.085
-0.05
-0.072
-0.067
-0.038
-0.05
-0.03
-0.022
-0.028
-0.03
-0.03
-0.035
-0.033
-0.029
-0.031
-0.035
-0.034
-0.04
-0.034
-0.025
-0.03
-0.025
-0.031
-0.019
0.012
0.025
0.022
0.014
0.007
0.005
0.005
0.009
0.01
0.012
0.033
0.04
-0.047
-0.072
-0.053
-0.048
-0.04
-0.036
-0.03
-0.02
-0.015
-0.02
-0.028
-0.035
-0.046
-0.056
-0.055
-0.051
-0.049
-0.053
-0.081
-0.125
-0.126
-0.129
-0.138
-0.132
-0.135
-0.189
-0.171
-0.148
-0.162
-0.155
-0.151
-0.147
-0.143
-0.14
-0.14
-0.144
-0.149
-0.15
-0.151
-0.165
-0.188
-0.183
-0.187
-0.209
-0.215
-0.219
-0.224
-0.223
-0.194
-0.155
-0.174
-0.181
-0.17
-0.164
-0.16
-0.157
-0.145
-0.159
-0.244
-0.305
-0.146
-0.048
-0.048
-0.057
-0.065
-0.082
-0.086
-0.087
-0.09
-0.1
-0.143
-0.149
-0.132
-0.132
-0.14
-0.121
-0.102
-0.086
-0.064
-0.06
-0.113
-0.136
-0.137
-0.139
-0.13
-0.126
-0.119
-0.113
-0.109
-0.1
-0.088
-0.077
-0.062
-0.066
-0.095
-0.081
-0.066
-0.048
0.01
0.07
0.033
0.11
0.25
0.345
0.415
0.505
0.641
0.782
0.905
0.98
0.92
0.857
0.774
0.614
0.4
0.169
-0.035
-0.24
-0.379
-0.375
-0.35
-0.33
-0.308
-0.285
-0.26
-0.223
-0.198
-0.181
-0.169
-0.17
-0.17
-0.168
-0.162
-0.17
-0.185
-0.144
-0.099
-0.107
-0.15
-0.175
-0.176
-0.175
-0.174
-0.177
-0.175
-0.131
-0.132
-0.135
-0.119
-0.13
-0.135
-0.135
-0.137
-0.141
-0.145
-0.149
-0.154
-0.155
-0.164
-0.16
-0.076
-0.02
-0.037
-0.114
-0.155
-0.02
0.0
-0.027
-0.007
-0.025
-0.059
-0.005
0.025
-0.023
-0.045
-0.011
-0.016
-0.053
-0.054
-0.025
-0.049
-0.084
-0.07
-0.035
-0.025
0.006
0.039
0.056
0.069
0.07
0.016
0.003
0.028
0.032
0.01
0.017
0.024
0.026
0.033
0.045
0.049
0.054
0.054
0.049
0.045
0.048
0.058
0.058
0.048
0.045
0.047
0.032
0.055
0.041
-0.055
-0.004
0.041
0.033
0.016
0.0
-0.013
-0.019
-0.02
-0.029
-0.03
0.022
0.02
-0.017
-0.012
0.03
0.021
0.002
-0.014
-0.027
-0.035
-0.057
-0.061
-0.079
-0.111
-0.12
-0.128
-0.137
-0.141
-0.14
-0.14
-0.144
-0.145
-0.145
-0.145
-0.145
-0.144
-0.152
-0.155
-0.166
-0.18
-0.138
-0.133
-0.153
-0.162
-0.17
-0.182
-0.193
-0.194
-0.189
-0.19
-0.195
-0.224
-0.249
-0.203
-0.1
-0.082
-0.055
-0.02
0.037
0.135
0.173
0.252
0.365
0.463
0.53
0.568
0.702
0.785
0.803
0.86
0.784
0.633
0.417
0.208
0.045
-0.228
-0.374
-0.396
-0.401
-0.39
-0.344
-0.292
-0.251
-0.198
-0.145
-0.169
-0.17
-0.154
-0.148
-0.14
-0.132
-0.12
-0.112
-0.109
-0.105
-0.105
-0.105
-0.105
-0.105
-0.105
-0.104
-0.111
-0.115
-0.107
-0.105
-0.133
-0.115
-0.052
-0.038
-0.09
-0.062
-0.002
-0.066
-0.164
-0.11
-0.047
-0.048
-0.081
-0.086
-0.045
-0.004
-0.005
-0.022
-0.033
-0.045
-0.058
-0.067
-0.088
-0.089
-0.035
0.017
0.033
0.025
0.019
0.015
-0.006
-0.012
-0.008
-0.004
0.0
0.0
0.001
-0.002
-0.005
0.0
0.0
0.001
0.011
-0.005
-0.04
0.011
0.036
0.007
-0.017
-0.01
-0.01
-0.007
-0.004
-0.005
-0.005
-0.002
0.007
0.009
0.032
0.085
0.083
0.079
0.078
0.075
0.08
0.088
0.096
0.104
0.112
0.115
0.096
0.071
0.051
0.037
0.02
-0.028
-0.1
-0.115
-0.068
-0.045
-0.071
-0.062
-0.031
-0.027
-0.045
-0.046
-0.041
-0.04
-0.039
-0.035
-0.036
-0.029
-0.041
-0.063
-0.06
-0.063
-0.068
-0.072
-0.076
-0.08
-0.08
-0.079
-0.082
-0.085
-0.085
-0.092
-0.075
-0.077
-0.062
0.01
0.006
-0.005
-0.008
-0.016
-0.005
0.048
0.147
0.214
0.308
0.49
0.578
0.668
0.781
0.902
0.985
0.896
0.752
0.606
0.441
0.24
0.0
-0.217
-0.329
-0.346
-0.35
-0.362
-0.372
-0.359
-0.327
-0.295
-0.247
-0.202
-0.157
-0.126
-0.13
-0.135
-0.135
-0.137
-0.14
-0.14
-0.146
-0.131
-0.098
-0.088
-0.115
-0.122
-0.144
-0.172
-0.135
-0.05
-0.096
-0.178
-0.139
-0.056
-0.075
-0.082
-0.074
-0.066
-0.058
-0.05
-0.039
-0.05
-0.003
0.052
0.01
-0.003
0.012
-0.023
-0.058
-0.015
-0.014
-0.009
-0.025
-0.079
-0.115
-0.103
-0.07
-0.043
-0.009
0.01
-0.051
-0.037
0.034
0.049
0.005
0.02
0.025
0.019
0.02
0.015
0.013
0.02
-0.018
-0.047
0.0
0.011
0.012
0.019
0.028
0.035
0.036
0.063
0.041
-0.003
0.025
0.043
0.05
0.061
0.064
0.05
0.034
0.021
0.009
-0.003
-0.015
-0.029
-0.022
-0.012
-0.008
0.0
0.001
0.03
0.048
0.037
0.03
0.023
0.004
-0.026
-0.04
-0.03
-0.051
-0.117
-0.089
-0.012
-0.035
-0.05
-0.051
-0.081
-0.121
-0.13
-0.142
-0.111
-0.065
-0.05
-0.06
-0.063
-0.078
-0.101
-0.118
-0.13
-0.14
-0.131
-0.124
-0.143
-0.15
-0.074
-0.06
-0.085
-0.091
-0.11
-0.147
-0.1
-0.048
-0.044
-0.035
-0.023
-0.014
-0.005
0.009
0.015
-0.003
-0.03
-0.045
-0.061
-0.075
-0.032
-0.035
-0.057
-0.072
-0.105
-0.107
-0.101
-0.067
-0.06
-0.125
-0.111
-0.079
-0.113
-0.149
-0.1
-0.058
-0.029
-0.004
-0.032
-0.105
-0.075
-0.026
-0.031
-0.067
-0.08
-0.08
-0.083
-0.086
-0.085
-0.085
-0.09
-0.087
-0.086
-0.082
-0.065
-0.055
-0.017
0.081
0.141
0.115
0.183
0.256
0.317
0.398
0.485
0.55
0.716
0.858
0.887
0.86
0.776
0.702
0.568
0.373
0.185
-0.021
-0.127
-0.222
-0.31
-0.295
-0.284
-0.289
-0.272
-0.237
-0.215
-0.202
-0.197
-0.177
-0.186
-0.24
-0.202
-0.144
-0.128
-0.137
-0.14
-0.144
-0.148
-0.152
-0.157
-0.16
-0.147
-0.118
-0.147
-0.175
-0.12
-0.128
-0.149
-0.16
-0.183
-0.19
-0.113
-0.074
-0.076
-0.074
-0.075
-0.08
-0.074
-0.088
-0.123
-0.155
-0.181
-0.051
0.026
0.027
0.095
0.032
0.009
0.024
0.018
0.005
-0.018
-0.015
-0.028
-0.051
-0.035
-0.027
-0.05
-0.058
-0.051
-0.06
-0.034
-0.003
-0.01
-0.032
-0.025
-0.02
-0.021
-0.018
-0.015
-0.015
0.002
0.004
-0.001
0.0
-0.005
-0.008
0.014
0.058
0.071
0.03
0.019
0.018
-0.022
-0.056
-0.025
-0.002
0.001
0.013
-0.019
-0.13
-0.162
-0.04
0.033
0.006
-0.005
-0.044
0.025
0.047
-0.051
-0.11
-0.072
-0.014
-0.015
-0.043
-0.035
-0.03
-0.029
-0.034
-0.04
-0.03
-0.023
-0.039
-0.057
-0.068
-0.085
-0.101
-0.078
-0.049
-0.073
-0.12
-0.087
-0.056
-0.061
-0.079
-0.085
-0.072
-0.072
-0.076
-0.074
-0.075
-0.08
-0.075
-0.1
-0.115
-0.075
-0.1
-0.095
-0.07
-0.056
-0.035
-0.019
-0.002
0.01
0.035
0.11
0.233
0.386
0.475
0.494
0.54
0.646
0.743
0.696
0.572
0.5
0.337
0.125
-0.046
-0.161
-0.25
-0.296
-0.296
-0.238
-0.158
-0.12
-0.108
-0.089
-0.079
-0.106
-0.14
-0.11
-0.085
-0.073
-0.047
-0.02
-0.015
-0.012
-0.01
-0.009
-0.005
-0.001
0.003
-0.009
-0.028
-0.035
-0.043
-0.048
-0.052
-0.055
-0.055
-0.059
-0.06
-0.062
-0.066
-0.065
-0.061
-0.057
-0.053
-0.048
-0.04
-0.036
-0.029
-0.038
-0.023
0.045
0.02
-0.163
-0.14
0.031
0.0
-0.003
-0.002
-0.005
-0.015
-0.02
0.051
0.072
0.063
0.065
0.06
0.06
0.057
0.056
0.061
0.06
0.06
0.059
0.062
0.065
0.06
0.049
0.031
0.024
0.032
0.04
0.044
0.047
0.054
0.061
0.06
0.052
0.049
0.052
0.055
0.055
0.058
0.033
0.033
0.05
0.03
0.012
0.008
-0.002
0.009
0.06
0.068
0.057
0.058
0.057
0.04
0.033
0.015
0.001
0.008
0.01
-0.023
-0.034
-0.027
-0.025
-0.025
-0.024
-0.031
-0.036
-0.035
-0.04
-0.047
-0.027
-0.027
-0.038
-0.02
-0.034
-0.027
-0.069
-0.123
-0.08
-0.042
-0.05
-0.065
-0.055
-0.04
-0.052
-0.052
-0.04
-0.034
-0.025
-0.013
-0.07
-0.089
-0.038
-0.015
-0.03
-0.047
-0.049
-0.036
0.0
0.072
0.097
0.129
0.196
0.26
0.335
0.377
0.423
0.492
0.55
0.618
0.785
0.871
0.812
0.745
0.676
0.571
0.385
0.155
-0.055
-0.256
-0.329
-0.334
-0.358
-0.375
-0.338
-0.291
-0.265
-0.252
-0.235
-0.218
-0.209
-0.183
-0.159
-0.175
-0.188
-0.199
-0.212
-0.222
-0.2
-0.119
-0.106
-0.127
-0.131
-0.145
-0.16
-0.112
-0.079
-0.093
-0.095
-0.099
-0.101
-0.099
-0.111
-0.135
-0.132
-0.129
-0.13
-0.131
-0.125
-0.08
0.014
0.057
0.035
0.03
0.037
0.048
0.046
0.031
0.015
-0.01
-0.055
-0.037
-0.018
-0.09
-0.089
-0.049
-0.014
0.019
0.045
0.02
-0.017
-0.021
0.009
0.035
0.036
0.038
0.04
0.041
0.04
0.01
0.008
0.017
0.015
0.02
0.021
0.017
0.012
0.001
-0.005
0.016
0.019
0.013
0.008
0.0
-0.004
-0.012
-0.015
-0.016
-0.025
-0.029
-0.033
-0.038
-0.039
-0.035
-0.037
-0.02
0.012
0.032
0.035
0.05
-0.001
-0.036
-0.023
-0.03
-0.035
-0.035
-0.037
-0.041
-0.045
-0.055
-0.084
-0.145
-0.188
-0.165
-0.152
-0.138
-0.124
-0.101
-0.055
-0.024
-0.051
-0.077
-0.075
-0.08
-0.089
-0.091
-0.103
-0.116
-0.11
-0.112
-0.128
-0.12
-0.097
-0.1
-0.109
-0.111
-0.109
-0.112
-0.11
-0.067
-0.061
-0.074
-0.076
-0.08
-0.084
-0.088
-0.09
-0.073
-0.045
-0.044
-0.045
-0.046
-0.043
-0.045
-0.08
-0.114
-0.149
-0.171
-0.15
-0.119
-0.084
-0.061
-0.037
-0.025
-0.084
-0.061
-0.063
-0.108
-0.075
-0.044
-0.035
-0.035
-0.034
-0.03
-0.025
-0.028
-0.029
-0.041
-0.07
-0.063
-0.056
-0.053
-0.05
-0.055
-0.055
-0.058
-0.059
-0.062
-0.065
-0.027
0.053
0.096
0.106
0.135
0.146
0.244
0.345
0.408
0.51
0.614
0.589
0.685
0.829
0.73
0.649
0.621
0.523
0.302
0.095
0.046
-0.142
-0.267
-0.235
-0.245
-0.249
-0.253
-0.239
-0.208
-0.185
-0.157
-0.132
-0.121
-0.111
-0.105
-0.135
-0.066
-0.017
-0.038
-0.035
-0.039
-0.038
-0.048
-0.062
-0.06
-0.064
-0.065
-0.067
-0.07
-0.07
-0.073
-0.09
-0.137
-0.128
-0.03
-0.029
-0.04
-0.044
-0.058
-0.065
-0.075
-0.094
-0.051
0.013
0.005
0.016
0.057
0.068
0.027
0.005
0.067
0.046
0.001
0.01
0.0
-0.085
-0.099
-0.08
-0.06
-0.015
-0.031
-0.057
-0.024
0.036
0.045
0.032
0.069
0.093
0.077
0.075
0.071
0.067
0.063
0.059
0.04
-0.015
0.009
0.076
0.09
0.05
0.04
0.035
0.044
0.071
0.08
0.072
0.064
0.054
0.042
0.035
0.028
0.014
0.031
0.092
0.135
0.113
0.123
0.103
0.054
0.06
0.065
0.067
0.059
0.077
0.11
0.02
-0.044
-0.049
-0.045
-0.05
-0.05
-0.049
-0.037
-0.022
-0.02
-0.024
-0.028
-0.032
-0.036
-0.04
-0.042
-0.062
-0.052
-0.002
0.02
-0.033
-0.054
-0.048
-0.051
-0.05
-0.041
-0.045
-0.052
-0.067
-0.105
-0.114
-0.088
-0.07
-0.079
-0.095
-0.101
-0.13
-0.166
-0.136
-0.055
-0.079
-0.065
-0.021
0.008
0.04
0.067
0.105
0.16
0.245
0.34
0.378
0.413
0.456
0.476
0.515
0.686
0.743
0.658
0.543
0.38
0.058
-0.095
-0.243
-0.394
-0.335
-0.29
-0.309
-0.301
-0.247
-0.205
-0.166
-0.118
-0.079
-0.071
-0.08
-0.07
-0.052
-0.039
-0.026
-0.02
-0.051
-0.042
-0.013
0.004
0.015
0.0
-0.018
-0.017
-0.037
-0.085
-0.05
0.003
0.014
-0.004
-0.015
-0.024
-0.025
-0.044
-0.067
-0.06
-0.064
-0.066
-0.065
-0.065
-0.065
-0.071
-0.055
-0.025
-0.008
-0.01
-0.01
-0.013
-0.015
-0.015
-0.02
-0.022
-0.003
0.035
0.046
-0.005
-0.05
-0.015
0.016
0.002
0.0
0.0
0.003
0.005
0.006
0.015
0.027
0.07
0.096
0.079
0.065
0.09
0.09
0.072
0.063
0.055
0.043
0.035
0.023
0.025
0.05
0.036
0.015
0.009
0.018
0.02
-0.006
-0.004
-0.007
-0.01
0.045
0.102
0.111
0.102
0.099
0.095
0.095
0.092
0.09
0.089
0.085
0.086
0.036
-0.028
-0.034
-0.015
-0.083
-0.087
-0.065
-0.079
-0.08
-0.05
-0.045
-0.053
-0.047
-0.025
0.008
0.026
0.034
0.042
0.06
0.085
-0.008
-0.073
-0.051
-0.05
-0.05
-0.048
-0.04
-0.036
-0.04
-0.021
-0.001
0.008
0.01
0.01
0.014
0.02
0.032
0.041
0.05
0.074
0.023
0.012
0.082
0.12
0.124
0.209
0.321
0.407
0.49
0.541
0.579
0.674
0.785
0.8
0.747
0.683
0.645
0.551
0.335
0.138
-0.024
-0.177
-0.29
-0.34
-0.395
-0.374
-0.322
-0.285
-0.235
-0.185
-0.153
-0.14
-0.134
-0.13
-0.13
-0.127
-0.123
-0.118
-0.11
-0.102
-0.095
-0.1
-0.103
-0.095
-0.106
-0.084
-0.069
-0.091
-0.095
-0.046
-0.027
-0.062
-0.093
-0.09
-0.098
-0.031
0.013
-0.003
0.0
0.0
0.001
-0.004
0.007
0.045
0.041
0.013
0.009
0.039
0.065
0.06
0.066
0.018
-0.048
-0.035
-0.028
-0.038
0.013
0.058
0.005
0.013
0.034
0.046
0.058
0.07
0.075
0.075
0.075
0.076
0.08
0.08
0.079
0.082
0.084
0.08
0.084
0.086
0.082
0.072
0.06
0.056
0.046
0.035
0.028
0.02
0.02
0.017
0.015
0.015
0.015
0.023
0.028
0.033
0.042
0.05
0.053
0.065
0.052
0.027
0.03
0.026
0.028
0.029
0.024
0.025
0.026
0.02
0.01
0.004
0.0
-0.009
-0.01
-0.013
-0.004
0.025
0.018
0.01
-0.005
-0.003
0.035
0.025
0.012
0.008
-0.004
-0.025
-0.046
-0.06
-0.054
-0.044
-0.055
-0.072
-0.077
-0.088
-0.065
0.005
-0.022
-0.064
-0.084
-0.117
-0.135
-0.044
-0.015
-0.028
-0.024
-0.025
-0.025
-0.025
-0.026
-0.023
-0.01
0.0
-0.012
-0.039
-0.049
-0.035
-0.024
0.004
0.076
0.057
-0.1
-0.088
-0.06
-0.056
-0.041
-0.03
-0.028
0.022
0.014
-0.033
0.01
0.057
0.01
-0.024
0.008
0.025
0.018
0.009
0.001
0.001
0.0
-0.034
-0.041
-0.032
-0.029
-0.025
-0.024
0.007
0.066
0.077
0.025
0.046
0.069
0.101
0.178
0.265
0.306
0.353
0.404
0.463
0.555
0.665
0.75
0.822
0.863
0.82
0.731
0.722
0.634
0.396
0.185
0.084
-0.107
-0.222
-0.184
-0.195
-0.313
-0.306
-0.22
-0.189
-0.19
-0.126
-0.083
-0.068
-0.059
-0.055
-0.047
-0.042
-0.037
-0.027
-0.015
-0.012
-0.032
-0.023
-0.033
-0.105
-0.079
-0.033
-0.03
-0.047
-0.045
-0.041
-0.039
-0.043
-0.052
-0.055
-0.057
-0.078
-0.097
-0.092
-0.05
0.036
0.05
0.024
0.022
0.035
0.043
0.055
0.076
0.083
0.06
0.041
0.049
0.069
0.083
0.08
0.047
0.034
0.032
0.006
-0.02
0.004
-0.02
-0.031
0.002
0.02
0.033
0.036
0.035
0.035
0.035
0.033
0.05
0.063
0.059
0.06
0.06
0.06
0.06
0.06
0.06
0.065
0.064
0.071
0.089
0.1
0.096
0.093
0.098
0.107
0.115
0.123
0.128
0.134
0.15
0.16
0.123
0.077
0.065
0.078
0.085
0.085
0.084
0.087
0.09
0.085
0.08
0.082
0.073
0.066
0.055
-0.027
-0.028
0.024
0.039
0.02
0.003
-0.009
-0.023
-0.038
-0.05
-0.067
-0.073
-0.079
-0.076
-0.04
-0.002
0.018
0.002
-0.014
0.005
0.007
0.002
-0.001
0.001
-0.01
-0.067
-0.063
-0.051
-0.077
-0.09
-0.065
-0.024
-0.023
-0.049
-0.05
-0.062
-0.102
-0.093
-0.049
-0.05
-0.039
-0.029
-0.02
-0.007
0.005
0.022
0.028
0.037
0.053
0.055
0.049
0.022
-0.024
-0.026
0.0
-0.093
-0.103
-0.07
-0.07
-0.065
-0.064
-0.037
-0.007
0.009
0.025
0.042
0.046
0.045
0.045
0.045
0.045
0.039
0.015
-0.025
-0.045
-0.011
0.022
0.035
0.041
0.045
0.049
0.053
0.056
0.071
0.105
0.131
0.141
0.153
0.194
0.265
0.352
0.481
0.564
0.649
0.785
0.762
0.846
0.87
0.735
0.655
0.667
0.536
0.321
0.145
-0.01
-0.162
-0.24
-0.332
-0.438
-0.435
-0.333
-0.168
-0.065
-0.056
-0.06
-0.057
-0.049
-0.04
-0.034
-0.03
-0.022
-0.017
-0.011
-0.004
-0.005
-0.001
0.003
0.007
0.002
-0.015
-0.024
-0.028
-0.033
-0.053
-0.075
-0.044
-0.054
-0.076
-0.075
-0.08
-0.087
-0.067
-0.051
-0.056
-0.055
-0.047
-0.039
-0.031
-0.023
-0.015
-0.003
0.011
0.033
0.062
0.085
0.092
0.107
0.069
-0.03
-0.095
-0.07
-0.045
-0.018
0.016
0.045
0.101
0.039
-0.017
0.006
0.02
0.039
0.065
0.094
0.112
0.115
0.121
0.106
0.09
0.09
0.09
0.086
0.082
0.078
0.074
0.075
0.088
0.088
0.084
0.085
0.08
0.076
0.072
0.07
0.07
0.07
0.07
0.07
0.071
0.076
0.08
0.08
0.083
0.086
0.093
0.095
0.039
-0.034
-0.041
0.005
0.035
0.074
0.115
0.089
-0.004
-0.065
-0.026
0.029
0.035
0.001
-0.02
-0.009
0.005
0.016
0.028
0.04
0.036
0.001
-0.001
0.03
0.025
0.0
-0.013
-0.015
-0.015
-0.015
-0.015
-0.016
-0.012
-0.02
-0.055
-0.087
-0.088
-0.102
-0.111
-0.075
-0.073
-0.073
-0.068
-0.072
-0.085
-0.092
-0.041
-0.007
0.001
0.05
0.095
0.133
0.166
0.208
0.27
0.341
0.411
0.433
0.507
0.71
0.822
0.856
0.854
0.736
0.495
0.351
0.17
-0.041
-0.161
-0.185
-0.249
-0.255
-0.217
-0.215
-0.235
-0.181
-0.131
-0.099
-0.067
-0.03
0.008
0.024
0.011
-0.009
-0.015
-0.015
-0.014
-0.017
-0.021
-0.02
-0.019
-0.025
-0.019
-0.002
0.005
0.011
0.03
0.014
-0.009
0.03
0.06
0.041
0.048
0.077
0.065
0.065
0.059
0.054
0.046
0.04
0.053
-0.051
-0.097
-0.022
0.02
0.038
0.079
0.095
0.077
0.065
0.035
0.031
0.035
0.029
0.03
0.047
0.077
0.033
-0.022
0.03
0.074
0.086
0.084
0.086
0.09
0.095
0.093
0.086
0.078
0.075
0.084
0.078
0.064
0.059
0.06
0.07
0.092
0.1
0.094
0.095
0.096
0.09
0.096
0.096
0.06
0.036
0.043
0.053
0.057
0.065
0.061
0.096
0.118
0.109
0.115
0.117
0.136
0.129
0.082
0.05
0.058
0.019
-0.01
0.003
0.005
0.008
0.017
-0.012
-0.047
-0.025
-0.006
-0.01
-0.018
-0.02
-0.025
-0.035
-0.027
-0.016
-0.006
0.015
0.027
0.043
0.07
0.085
0.06
0.022
0.005
-0.008
-0.012
0.015
0.037
0.045
0.058
0.055
0.015
-0.015
-0.036
-0.068
-0.075
-0.025
0.018
0.04
0.08
0.138
0.185
0.249
0.342
0.4
0.449
0.575
0.716
0.775
0.864
0.934
0.825
0.68
0.576
0.427
0.209
-0.005
-0.185
-0.258
-0.3
-0.321
-0.26
-0.208
-0.228
-0.323
-0.292
-0.075
-0.059
-0.078
-0.076
-0.081
-0.08
-0.084
-0.085
-0.085
-0.085
-0.085
-0.085
-0.085
-0.085
-0.085
-0.085
-0.085
-0.085
-0.085
-0.085
-0.085
-0.085
-0.085
-0.085
-0.085
-0.085
-0.085
-0.085
-0.085
-0.085
-0.085
-0.085
-0.085
-0.085
-0.085
-0.085
-0.085
-0.085
-0.085
-0.085
-0.085
-0.085
-0.085
-0.085
-0.085
-0.085
-0.085
-0.085
-0.085
-0.085
-0.085
-0.085
-0.085
-0.085
-0.085
-0.085
-0.085
-0.085
-0.085
-0.085
-0.06
-0.06
-0.06
-0.061
-0.058
-0.06
-0.075
0.012
0.072
0.051
0.05
0.044
0.024
0.013
0.016
0.02
0.038
0.067
0.073
0.055
0.04
0.029
0.01
0.041
0.082
0.035
-0.021
0.028
0.063
0.07
0.125
0.091
0.036
0.032
0.07
0.09
0.075
0.13
0.161
0.137
0.15
0.169
0.156
0.125
0.117
0.145
0.174
0.155
0.118
0.087
0.065
0.087
0.116
0.146
0.186
0.22
0.21
0.194
0.186
0.178
0.17
0.167
0.156
0.146
0.137
0.125
0.116
0.11
0.095
0.058
0.045
0.137
0.159
0.14
0.139
0.13
0.126
0.116
0.105
0.107
0.13
0.161
0.122
0.052
0.007
-0.015
-0.008
0.098
0.053
-0.066
0.03
0.104
0.067
-0.013
-0.001
0.095
0.067
0.049
0.055
0.05
0.055
0.055
0.021
0.003
0.011
0.005
0.004
0.008
-0.006
-0.028
-0.025
-0.02
-0.021
-0.017
-0.016
-0.035
-0.065
-0.04
-0.03
-0.061
-0.06
-0.021
-0.017
-0.029
-0.031
-0.04
-0.047
-0.021
0.048
0.056
-0.03
-0.011
0.017
0.023
0.033
0.04
0.039
0.046
0.05
0.051
0.05
0.018
-0.002
-0.007
0.026
0.065
-0.036
-0.039
0.033
0.044
0.005
0.021
0.049
0.039
0.028
0.065
0.093
0.124
0.136
0.128
0.125
0.117
0.109
0.1
0.095
0.085
0.057
0.105
0.159
0.165
0.195
0.299
0.384
0.449
0.524
0.585
0.619
0.751
0.851
0.864
0.87
0.799
0.735
0.63
0.463
0.28
0.051
-0.109
-0.171
-0.207
-0.245
-0.21
-0.188
-0.177
-0.136
-0.08
-0.059
-0.039
-0.028
-0.031
-0.03
-0.032
-0.043
-0.008
0.032
-0.04
-0.17
-0.052
0.043
-0.026
-0.045
-0.025
-0.014
-0.017
-0.012
-0.005
-0.033
-0.05
-0.049
-0.052
-0.045
0.019
0.028
0.008
0.004
-0.005
-0.017
-0.026
-0.034
-0.042
-0.04
-0.007
0.006
0.006
0.011
0.015
0.031
0.108
0.093
0.018
0.055
0.087
0.087
0.071
0.058
0.055
0.055
0.052
0.047
0.027
0.005
0.045
0.069
0.085
0.102
0.095
0.087
0.112
0.127
0.118
0.115
0.111
0.106
0.106
0.111
0.115
0.115
0.117
0.123
0.125
0.125
0.137
0.147
0.152
0.157
0.16
0.15
0.163
0.168
0.151
0.14
0.128
0.119
0.111
0.103
0.095
0.095
0.161
0.174
0.102
0.065
0.086
0.082
0.06
0.048
0.035
0.009
0.008
0.052
0.087
0.065
0.058
0.066
0.056
0.073
0.13
0.087
0.035
-0.007
-0.022
0.005
-0.019
-0.089
-0.071
-0.001
-0.015
-0.02
0.008
0.005
-0.024
-0.025
-0.033
-0.04
-0.054
-0.056
-0.035
-0.053
-0.074
-0.087
-0.114
-0.125
-0.045
-0.028
-0.044
-0.048
-0.065
-0.058
-0.053
-0.043
-0.037
-0.05
-0.039
-0.029
-0.033
-0.033
-0.02
-0.015
-0.015
-0.014
-0.017
-0.03
-0.037
-0.054
-0.075
-0.086
-0.08
-0.066
-0.066
-0.042
-0.022
-0.045
-0.022
-0.008
-0.03
-0.052
-0.045
-0.036
-0.035
-0.034
-0.028
-0.02
-0.02
-0.018
-0.012
-0.002
0.01
0.018
0.03
0.037
0.043
0.06
0.068
0.082
0.096
0.109
0.13
0.17
0.275
0.334
0.369
0.49
0.594
0.705
0.773
0.817
0.875
0.823
0.77
0.704
0.561
0.36
0.163
-0.02
-0.118
-0.158
-0.21
-0.19
-0.158
-0.164
-0.19
-0.175
-0.1
-0.073
-0.073
-0.072
-0.09
-0.099
-0.106
-0.114
-0.122
-0.13
-0.14
-0.128
-0.068
-0.015
-0.03
-0.039
-0.042
-0.048
-0.058
-0.065
-0.067
-0.086
-0.047
0.01
-0.01
-0.019
-0.026
-0.05
-0.064
-0.035
0.008
0.021
0.021
0.026
0.03
0.034
0.038
0.041
0.04
0.035
0.025
0.036
0.051
0.075
0.11
0.085
0.05
0.036
0.044
0.07
0.093
0.087
0.061
0.043
0.035
0.01
0.04
0.092
0.076
0.02
0.069
0.107
0.111
0.109
0.105
0.107
0.095
0.122
0.129
0.055
0.062
0.083
0.068
0.049
0.065
0.082
0.091
0.116
0.108
0.08
0.202
0.215
0.155
0.129
0.105
0.082
0.087
0.1
0.108
0.125
0.136
0.122
0.101
0.086
0.065
0.042
0.047
0.061
0.066
0.075
0.092
0.063
0.022
-0.027
-0.09
-0.073
-0.053
-0.045
-0.031
-0.005
0.03
0.032
0.023
0.017
-0.015
-0.052
-0.008
0.024
0.0
-0.01
-0.022
-0.031
-0.042
-0.078
-0.13
-0.124
-0.018
0.026
-0.018
-0.025
-0.03
-0.06
-0.081
-0.079
-0.08
-0.088
-0.058
-0.035
-0.041
-0.04
-0.049
-0.045
-0.036
-0.027
-0.02
-0.028
-0.033
-0.039
-0.036
-0.01
0.012
0.019
0.021
0.027
0.03
0.013
0.007
-0.017
-0.067
-0.105
-0.112
-0.096
-0.076
-0.062
-0.045
-0.024
-0.014
-0.004
-0.002
0.0
0.055
0.097
0.077
0.066
0.09
-0.003
-0.075
-0.055
0.011
0.06
0.074
0.081
0.089
0.098
0.11
0.118
0.126
0.115
0.099
0.125
0.2
0.274
0.352
0.451
0.535
0.577
0.721
0.844
0.886
0.93
0.925
0.866
0.732
0.55
0.365
0.155
-0.024
-0.172
-0.253
-0.235
-0.225
-0.221
-0.206
-0.203
-0.225
-0.226
-0.225
-0.207
-0.172
-0.15
-0.138
-0.128
-0.127
-0.148
-0.155
-0.07
0.01
0.02
-0.014
-0.03
-0.013
-0.014
-0.021
-0.03
-0.055
-0.066
-0.097
-0.172
-0.178
-0.055
-0.001
0.026
0.018
-0.015
-0.02
-0.025
-0.02
-0.01
-0.004
0.0
0.008
0.014
0.016
0.023
0.04
0.059
0.055
0.063
0.056
0.015
0.047
0.057
0.046
0.044
0.04
0.038
0.019
0.007
0.011
0.02
0.048
0.038
0.034
0.054
0.06
0.059
0.066
0.073
0.076
0.08
0.092
0.105
0.114
0.123
0.135
0.143
0.154
0.148
0.133
0.135
0.135
0.138
0.14
0.141
0.15
0.157
0.137
0.105
0.088
0.1
0.123
0.049
0.023
0.1
0.15
0.14
0.127
0.123
0.111
0.095
0.091
0.084
0.077
0.074
0.065
0.041
0.017
-0.009
-0.027
-0.025
-0.02
-0.023
-0.023
-0.02
-0.025
-0.03
-0.03
-0.032
-0.036
-0.04
-0.044
-0.044
-0.035
-0.039
-0.065
-0.083
-0.149
-0.11
-0.078
-0.18
-0.034
0.002
-0.048
-0.067
-0.105
-0.13
-0.145
-0.106
-0.08
-0.14
-0.162
-0.174
-0.117
-0.042
-0.06
-0.069
-0.076
-0.08
-0.073
-0.07
-0.07
-0.037
-0.016
-0.02
-0.015
-0.023
-0.029
-0.031
-0.028
-0.035
-0.089
-0.073
-0.072
-0.101
-0.08
-0.093
-0.083
-0.044
-0.034
-0.065
-0.055
-0.039
-0.032
-0.012
-0.005
-0.091
-0.089
-0.025
0.003
0.0
0.003
-0.023
-0.034
-0.017
-0.01
-0.002
0.007
0.011
0.027
0.03
-0.059
-0.033
0.067
0.106
0.1
0.157
0.225
0.317
0.442
0.565
0.675
0.733
0.787
0.901
1.005
0.922
0.815
0.751
0.631
0.4
0.192
0.041
-0.142
-0.289
-0.3
-0.333
-0.299
-0.226
-0.183
-0.165
-0.148
-0.143
-0.146
-0.144
-0.14
-0.14
-0.141
-0.138
-0.135
-0.135
-0.135
-0.132
-0.129
-0.131
-0.13
-0.12
-0.191
-0.13
0.005
-0.03
-0.049
-0.057
-0.058
-0.075
-0.105
-0.051
-0.041
-0.064
-0.071
-0.08
-0.107
-0.097
-0.049
-0.017
-0.03
-0.04
-0.035
-0.025
-0.019
-0.015
-0.01
-0.019
-0.044
-0.044
0.01
0.061
0.053
0.034
0.017
-0.02
-0.021
0.008
-0.009
-0.049
-0.045
-0.072
-0.093
-0.06
0.004
0.035
0.032
0.057
0.038
0.007
0.07
0.129
0.101
0.109
0.127
0.06
0.075
0.103
0.084
0.058
0.065
0.061
0.062
0.065
0.066
0.07
0.07
0.073
0.076
0.075
0.075
0.079
0.08
0.082
0.085
0.085
0.089
0.093
0.081
0.052
0.025
0.023
0.037
0.082
0.054
-0.08
-0.049
0.006
0.016
0.016
0.02
-0.002
-0.035
-0.046
-0.038
-0.035
-0.031
-0.027
-0.023
-0.019
-0.015
-0.025
-0.085
-0.11
-0.068
-0.05
-0.109
-0.118
-0.114
-0.133
-0.135
-0.148
-0.146
-0.134
-0.13
-0.145
-0.164
-0.086
-0.056
-0.128
-0.165
-0.142
-0.128
-0.132
-0.127
-0.11
-0.102
-0.058
-0.042
-0.063
-0.065
-0.073
-0.075
-0.044
-0.013
-0.03
-0.047
-0.061
-0.079
-0.084
-0.085
-0.136
-0.178
-0.168
-0.141
-0.14
-0.138
-0.119
-0.092
-0.079
-0.07
-0.033
-0.05
-0.096
-0.117
-0.13
-0.152
-0.045
0.032
0.011
0.01
0.006
0.006
-0.003
-0.034
-0.055
-0.011
0.049
0.067
0.06
0.06
0.026
0.023
0.065
0.106
0.12
0.168
0.272
0.348
0.414
0.55
0.679
0.736
0.803
0.92
0.99
0.931
0.888
0.767
0.564
0.39
0.144
-0.09
-0.232
-0.281
-0.295
-0.319
-0.295
-0.233
-0.205
-0.235
-0.245
-0.212
-0.189
-0.19
-0.185
-0.177
-0.172
-0.168
-0.164
-0.16
-0.156
-0.152
-0.148
-0.144
-0.14
-0.141
-0.13
-0.109
-0.101
-0.135
-0.203
-0.149
-0.056
-0.028
-0.035
-0.031
-0.03
-0.027
-0.036
-0.065
-0.058
-0.054
-0.054
-0.049
-0.045
-0.041
-0.038
-0.044
-0.024
0.025
0.016
-0.003
-0.002
0.015
0.02
-0.014
-0.019
-0.004
0.0
0.0
0.008
-0.021
-0.032
-0.029
-0.06
-0.048
-0.013
0.004
0.016
0.035
-0.002
-0.042
-0.031
0.026
0.065
0.037
0.029
0.038
0.042
0.055
0.064
0.067
0.076
0.078
0.055
0.027
0.034
0.053
0.063
0.075
0.087
0.098
0.115
0.115
0.075
0.048
0.041
0.038
0.035
0.035
0.029
0.007
0.003
0.035
0.045
-0.03
-0.049
-0.039
-0.046
-0.045
-0.048
-0.059
-0.07
-0.077
-0.085
-0.093
-0.098
-0.102
-0.106
-0.11
-0.114
-0.117
-0.127
-0.134
-0.125
-0.123
-0.102
-0.085
-0.084
-0.065
-0.036
-0.122
-0.181
-0.164
-0.17
-0.138
-0.084
-0.075
-0.108
-0.13
-0.142
-0.154
-0.148
-0.124
-0.12
-0.148
-0.131
-0.11
-0.116
-0.115
-0.107
-0.104
-0.106
-0.104
-0.095
-0.077
-0.084
-0.104
-0.11
-0.1
-0.09
-0.099
-0.107
-0.104
-0.1
-0.097
-0.122
-0.169
-0.197
-0.18
-0.148
-0.116
-0.084
-0.062
-0.07
-0.097
-0.095
-0.091
-0.104
-0.115
-0.121
-0.148
-0.16
-0.147
-0.135
-0.097
-0.05
-0.048
-0.064
-0.035
-0.018
-0.006
0.006
0.017
0.025
0.032
0.045
0.054
0.082
0.145
0.194
0.275
0.371
0.456
0.54
0.629
0.74
0.842
0.916
0.94
0.873
0.817
0.714
0.514
0.27
0.031
-0.141
-0.263
-0.336
-0.34
-0.32
-0.303
-0.285
-0.258
-0.23
-0.201
-0.152
-0.184
-0.243
-0.205
-0.181
-0.141
-0.077
-0.043
-0.105
-0.258
-0.322
-0.191
-0.067
-0.12
-0.097
-0.097
-0.066
-0.01
-0.035
-0.065
-0.079
-0.079
-0.082
-0.09
-0.085
-0.125
-0.112
-0.052
-0.055
-0.056
-0.055
-0.054
-0.048
-0.04
-0.031
-0.03
-0.028
-0.026
-0.035
-0.044
-0.047
-0.041
-0.042
-0.05
-0.026
-0.014
0.0
-0.019
-0.09
-0.074
-0.023
-0.042
-0.072
-0.045
-0.096
-0.088
-0.052
-0.042
-0.03
-0.024
-0.001
0.012
0.012
0.04
0.075
0.009
-0.036
0.007
0.015
-0.056
-0.036
0.055
0.079
0.025
0.034
0.048
0.055
0.068
0.075
0.086
0.102
0.084
0.05
0.05
0.044
0.021
0.005
0.005
0.005
0.005
0.002
-0.001
0.001
0.0
-0.012
-0.019
-0.021
-0.027
-0.035
-0.039
-0.043
-0.047
-0.051
-0.055
-0.059
-0.063
-0.068
-0.07
-0.07
-0.08
-0.076
-0.129
-0.189
-0.15
-0.114
-0.11
-0.118
-0.12
-0.12
-0.128
-0.134
-0.153
-0.18
-0.17
-0.124
-0.175
-0.197
-0.11
-0.04
-0.072
-0.111
-0.141
-0.171
-0.185
-0.186
-0.181
-0.183
-0.192
-0.19
-0.171
-0.148
-0.137
-0.133
-0.125
-0.125
-0.124
-0.11
-0.074
-0.05
-0.095
-0.107
-0.098
-0.091
-0.085
-0.129
-0.156
-0.132
-0.119
-0.165
-0.193
-0.191
-0.178
-0.168
-0.165
-0.163
-0.144
-0.134
-0.123
-0.08
-0.057
-0.09
-0.148
-0.159
-0.095
-0.037
-0.029
-0.039
-0.04
-0.04
-0.044
-0.046
-0.043
-0.057
-0.075
-0.021
0.025
0.058
0.092
0.135
0.231
0.314
0.39
0.467
0.55
0.69
0.75
0.878
1.0
0.91
0.845
0.764
0.619
0.396
0.125
-0.096
-0.277
-0.358
-0.362
-0.38
-0.38
-0.352
-0.32
-0.293
-0.265
-0.243
-0.199
-0.144
-0.137
-0.205
-0.272
-0.279
-0.264
-0.259
-0.255
-0.247
-0.241
-0.239
-0.233
-0.22
-0.208
-0.196
-0.185
-0.17
-0.155
-0.162
-0.167
-0.16
-0.137
-0.11
-0.113
-0.113
-0.109
-0.11
-0.105
-0.1
-0.1
-0.098
-0.095
-0.095
-0.083
-0.073
-0.068
-0.064
-0.06
-0.062
-0.079
-0.05
-0.007
-0.035
-0.059
-0.049
-0.022
-0.027
-0.065
-0.071
-0.106
-0.113
-0.061
-0.025
-0.046
-0.039
-0.014
0.006
0.025
0.021
0.021
0.028
0.029
0.025
0.029
0.033
0.036
0.024
0.0
0.011
0.022
0.028
0.038
0.05
0.054
0.062
0.066
0.074
0.08
0.026
-0.023
-0.025
0.003
0.025
0.018
0.01
0.012
0.016
0.02
0.024
0.027
0.021
0.023
0.015
-0.069
-0.086
-0.058
-0.058
-0.08
-0.089
-0.096
-0.102
-0.107
-0.12
-0.127
-0.107
-0.075
-0.066
-0.08
-0.084
-0.093
-0.105
-0.112
-0.12
-0.127
-0.149
-0.195
-0.22
-0.195
-0.177
-0.17
-0.127
-0.151
-0.27
-0.193
-0.159
-0.188
-0.195
-0.185
-0.174
-0.193
-0.209
-0.203
-0.2
-0.2
-0.199
-0.189
-0.179
-0.185
-0.193
-0.163
-0.106
-0.08
-0.1
-0.101
-0.097
-0.091
-0.084
-0.08
-0.074
-0.121
-0.149
-0.13
-0.125
-0.134
-0.129
-0.129
-0.161
-0.195
-0.177
-0.157
-0.139
-0.115
-0.09
-0.055
-0.124
-0.173
-0.151
-0.145
-0.114
-0.09
-0.113
-0.142
-0.13
-0.13
-0.124
-0.12
-0.108
-0.065
-0.026
-0.014
-0.015
-0.017
-0.035
-0.058
-0.013
0.056
0.108
0.165
0.238
0.332
0.426
0.537
0.665
0.736
0.801
0.896
0.935
0.865
0.818
0.669
0.469
0.28
0.075
-0.103
-0.226
-0.29
-0.332
-0.37
-0.357
-0.335
-0.314
-0.289
-0.27
-0.255
-0.228
-0.193
-0.163
-0.16
-0.206
-0.186
-0.194
-0.238
-0.215
-0.206
-0.194
-0.176
-0.161
-0.155
-0.166
-0.145
-0.123
-0.119
-0.11
-0.105
-0.104
-0.09
-0.072
-0.07
-0.073
-0.081
-0.087
-0.092
-0.1
-0.096
-0.094
-0.095
-0.095
-0.095
-0.087
-0.085
-0.083
-0.08
-0.08
-0.064
-0.049
-0.013
-0.037
-0.14
-0.1
-0.071
-0.075
-0.05
-0.015
-0.047
-0.091
-0.095
-0.059
-0.035
-0.062
-0.046
-0.01
0.001
0.005
0.013
0.02
0.032
0.023
-0.015
-0.013
-0.008
-0.011
-0.009
-0.005
0.0
-0.001
0.005
0.017
0.02
0.028
0.036
0.043
0.053
0.06
0.043
0.037
0.011
-0.025
-0.025
-0.028
-0.033
-0.037
-0.041
-0.045
-0.045
-0.045
-0.045
-0.045
-0.045
-0.044
-0.05
-0.059
-0.067
-0.075
-0.083
-0.091
-0.1
-0.105
-0.105
-0.109
-0.11
-0.113
-0.113
-0.1
-0.091
-0.086
-0.072
-0.076
-0.11
-0.111
-0.114
-0.142
-0.169
-0.175
-0.19
-0.171
-0.128
-0.102
-0.105
-0.105
-0.109
-0.107
-0.109
-0.15
-0.209
-0.197
-0.146
-0.123
-0.13
-0.134
-0.141
-0.147
-0.151
-0.155
-0.148
-0.131
-0.109
-0.1
-0.105
-0.1
-0.109
-0.114
-0.092
-0.085
-0.133
-0.06
-0.061
-0.178
-0.21
-0.208
-0.193
-0.179
-0.175
-0.17
-0.138
-0.112
-0.1
-0.104
-0.125
-0.146
-0.219
-0.188
-0.085
-0.085
-0.074
-0.061
-0.048
-0.04
-0.05
-0.055
-0.057
-0.064
-0.071
-0.075
-0.08
-0.072
-0.058
-0.048
-0.035
-0.006
0.044
0.077
0.115
0.195
0.259
0.332
0.453
0.592
0.705
0.815
0.836
0.85
0.847
0.745
0.659
0.541
0.364
0.132
-0.105
-0.242
-0.325
-0.375
-0.42
-0.47
-0.447
-0.399
-0.349
-0.307
-0.285
-0.258
-0.225
-0.197
-0.166
-0.15
-0.199
-0.176
-0.094
-0.07
-0.115
-0.107
-0.09
-0.143
-0.199
-0.18
-0.192
-0.185
-0.139
-0.127
-0.175
-0.164
-0.134
-0.136
-0.134
-0.105
-0.132
-0.178
-0.158
-0.108
-0.11
-0.102
-0.097
-0.091
-0.084
-0.08
-0.071
-0.074
-0.069
-0.051
-0.035
-0.015
-0.001
-0.003
-0.012
-0.02
-0.026
-0.02
-0.044
-0.097
-0.115
-0.086
-0.111
-0.099
-0.059
-0.075
-0.027
-0.001
0.035
0.027
-0.07
-0.02
0.065
0.071
0.042
0.055
0.064
0.07
0.081
0.073
0.03
0.006
0.012
0.025
0.032
0.04
0.05
0.042
0.032
0.029
0.02
0.012
0.004
-0.002
-0.006
-0.01
-0.012
-0.031
-0.041
-0.033
-0.03
-0.026
-0.024
-0.025
-0.016
-0.02
-0.094
-0.09
-0.019
-0.021
-0.115
-0.113
-0.094
-0.098
-0.107
-0.115
-0.12
-0.114
-0.108
-0.104
-0.1
-0.111
-0.129
-0.168
-0.187
-0.14
-0.103
-0.101
-0.092
-0.117
-0.195
-0.173
-0.135
-0.148
-0.172
-0.17
-0.194
-0.207
-0.203
-0.209
-0.22
-0.192
-0.147
-0.154
-0.19
-0.19
-0.193
-0.202
-0.205
-0.206
-0.205
-0.173
-0.118
-0.1
-0.118
-0.12
-0.121
-0.112
-0.117
-0.149
-0.175
-0.162
-0.135
-0.151
-0.176
-0.155
-0.152
-0.167
-0.197
-0.225
-0.22
-0.184
-0.154
-0.14
-0.133
-0.125
-0.129
-0.131
-0.13
-0.13
-0.13
-0.13
-0.129
-0.134
-0.14
-0.135
-0.135
-0.132
-0.131
-0.127
-0.115
-0.118
-0.086
-0.054
-0.031
0.015
0.038
0.052
0.132
0.215
0.24
0.371
0.509
0.585
0.671
0.81
0.852
0.87
0.866
0.795
0.645
0.436
0.248
0.033
-0.195
-0.31
-0.315
-0.406
-0.431
-0.34
-0.275
-0.198
-0.181
-0.21
-0.208
-0.185
-0.244
-0.248
-0.219
-0.206
-0.185
-0.162
-0.169
-0.189
-0.204
-0.225
-0.242
-0.209
-0.138
-0.124
-0.185
-0.152
-0.095
-0.093
-0.119
-0.115
-0.102
-0.102
-0.107
-0.111
-0.115
-0.117
-0.135
-0.15
-0.121
-0.06
-0.053
-0.053
-0.048
-0.044
-0.04
-0.044
-0.045
-0.047
-0.051
-0.05
-0.047
-0.038
-0.036
-0.04
-0.045
-0.069
-0.085
-0.081
-0.076
-0.09
-0.109
-0.129
-0.104
-0.066
-0.075
-0.065
-0.047
-0.049
-0.045
-0.01
0.005
0.004
0.026
0.035
-0.005
-0.007
-0.004
-0.005
-0.006
-0.01
-0.01
-0.014
-0.013
-0.01
-0.015
-0.011
-0.009
-0.012
-0.015
-0.015
-0.019
-0.021
-0.019
-0.022
-0.03
-0.027
-0.022
-0.018
-0.014
-0.01
-0.005
-0.011
-0.016
-0.015
-0.02
-0.022
-0.013
-0.059
-0.107
-0.075
-0.078
-0.079
-0.106
-0.172
-0.195
-0.112
-0.088
-0.107
-0.111
-0.115
-0.118
-0.127
-0.131
-0.13
-0.135
-0.147
-0.156
-0.165
-0.17
-0.165
-0.157
-0.148
-0.147
-0.159
-0.175
-0.191
-0.209
-0.217
-0.214
-0.215
-0.233
-0.231
-0.222
-0.219
-0.215
-0.213
-0.229
-0.231
-0.211
-0.2
-0.189
-0.171
-0.163
-0.138
-0.11
-0.175
-0.1
-0.084
-0.171
-0.15
-0.131
-0.172
-0.247
-0.217
-0.065
-0.07
-0.157
-0.201
-0.183
-0.155
-0.144
-0.12
-0.125
-0.137
-0.095
-0.053
-0.065
-0.086
-0.085
-0.09
-0.094
-0.098
-0.102
-0.106
-0.11
-0.11
-0.11
-0.11
-0.11
-0.105
-0.096
-0.094
-0.078
-0.039
0.015
0.079
0.108
0.162
0.276
0.375
0.399
0.521
0.703
0.81
0.825
0.847
0.842
0.8
0.703
0.535
0.336
0.1
-0.115
-0.295
-0.435
-0.438
-0.414
-0.408
-0.384
-0.31
-0.234
-0.263
-0.279
-0.237
-0.225
-0.209
-0.193
-0.177
-0.17
-0.175
-0.167
-0.166
-0.16
-0.157
-0.17
-0.163
-0.153
-0.164
-0.174
-0.155
-0.153
-0.16
-0.155
-0.16
-0.18
-0.151
-0.147
-0.159
-0.161
-0.165
-0.169
-0.173
-0.177
-0.153
-0.125
-0.201
-0.205
-0.162
-0.13
-0.055
0.041
-0.078
-0.106
0.002
-0.04
-0.077
-0.042
-0.031
-0.068
-0.075
-0.056
-0.037
-0.024
-0.057
-0.13
-0.113
-0.095
-0.077
-0.042
-0.02
-0.023
-0.03
-0.026
-0.019
-0.02
-0.016
-0.014
-0.015
-0.014
-0.01
-0.003
0.01
0.018
0.022
0.03
0.037
0.048
0.031
0.009
0.02
0.021
0.019
0.021
0.019
0.02
0.029
-0.009
-0.036
-0.029
-0.035
-0.036
-0.033
-0.041
-0.043
-0.055
-0.144
-0.162
-0.146
-0.15
-0.145
-0.14
-0.102
-0.023
-0.016
-0.12
-0.126
-0.117
-0.121
-0.121
-0.125
-0.125
-0.124
-0.128
-0.138
-0.145
-0.132
-0.106
-0.138
-0.183
-0.15
-0.131
-0.166
-0.19
-0.184
-0.19
-0.195
-0.194
-0.201
-0.211
-0.21
-0.218
-0.226
-0.234
-0.242
-0.245
-0.243
-0.261
-0.287
-0.295
-0.285
-0.28
-0.28
-0.264
-0.241
-0.225
-0.179
-0.101
-0.121
-0.158
-0.105
-0.202
-0.268
-0.25
-0.203
-0.16
-0.133
-0.098
-0.101
-0.145
-0.165
-0.147
-0.12
-0.122
-0.153
-0.18
-0.193
-0.167
-0.142
-0.131
-0.115
-0.118
-0.125
-0.123
-0.12
-0.125
-0.125
-0.128
-0.131
-0.13
-0.13
-0.131
-0.121
-0.112
-0.109
-0.1
-0.091
-0.088
-0.062
-0.023
0.0
0.047
0.132
0.21
0.281
0.375
0.474
0.614
0.693
0.787
0.97
0.937
0.871
0.806
0.658
0.44
0.263
0.104
-0.181
-0.416
-0.38
-0.376
-0.344
-0.277
-0.261
-0.305
-0.289
-0.258
-0.232
-0.202
-0.17
-0.152
-0.182
-0.205
-0.2
-0.205
-0.201
-0.197
-0.192
-0.182
-0.165
-0.149
-0.166
-0.173
-0.156
-0.145
-0.14
-0.143
-0.163
-0.182
-0.175
-0.174
-0.177
-0.185
-0.19
-0.185
-0.182
-0.17
-0.149
-0.15
-0.195
-0.233
-0.216
-0.177
-0.148
-0.11
-0.066
-0.093
-0.104
-0.058
-0.035
-0.058
-0.043
-0.012
0.003
-0.015
-0.083
-0.034
-0.037
-0.114
-0.085
-0.05
-0.072
-0.067
-0.038
-0.05
-0.03
-0.022
-0.028
-0.03
-0.03
-0.035
-0.033
-0.029
-0.031
-0.035
-0.034
-0.04
-0.034
-0.025
-0.03
-0.025
-0.031
-0.019
0.012
0.025
0.022
0.014
0.007
0.005
0.005
0.009
0.01
0.012
0.033
0.04
-0.047
-0.072
-0.053
-0.048
-0.04
-0.036
-0.03
-0.02
-0.015
-0.02
-0.028
-0.035
-0.046
-0.056
-0.055
-0.051
-0.049
-0.053
-0.081
-0.125
-0.126
-0.129
-0.138
-0.132
-0.135
-0.189
-0.171
-0.148
-0.162
-0.155
-0.151
-0.147
-0.143
-0.14
-0.14
-0.144
-0.149
-0.15
-0.151
-0.165
-0.188
-0.183
-0.187
-0.209
-0.215
-0.219
-0.224
-0.223
-0.194
-0.155
-0.174
-0.181
-0.17
-0.164
-0.16
-0.157
-0.145
-0.159
-0.244
-0.305
-0.146
-0.048
-0.048
-0.057
-0.065
-0.082
-0.086
-0.087
-0.09
-0.1
-0.143
-0.149
-0.132
-0.132
-0.14
-0.121
-0.102
-0.086
-0.064
-0.06
-0.113
-0.136
-0.137
-0.139
-0.13
-0.126
-0.119
-0.113
-0.109
-0.1
-0.088
-0.077
-0.062
-0.066
-0.095
-0.081
-0.066
-0.048
0.01
0.07
0.033
0.11
0.25
0.345
0.415
0.505
0.641
0.782
0.905
0.98
0.92
0.857
0.774
0.614
0.4
0.169
-0.035
-0.24
-0.379
-0.375
-0.35
-0.33
-0.308
-0.285
-0.26
-0.223
-0.198
-0.181
-0.169
-0.17
-0.17
-0.168
-0.162
-0.17
-0.185
-0.144
-0.099
-0.107
-0.15
-0.175
-0.176
-0.175
-0.174
-0.177
-0.175
-0.131
-0.132
-0.135
-0.119
-0.13
-0.135
-0.135
-0.137
-0.141
-0.145
-0.149
-0.154
-0.155
-0.164
-0.16
-0.076
-0.02
-0.037
-0.114
-0.155
-0.02
0.0
-0.027
-0.007
-0.025
-0.059
-0.005
0.025
-0.023
-0.045
-0.011
-0.016
-0.053
-0.054
-0.025
-0.049
-0.084
-0.07
-0.035
-0.025
0.006
0.039
0.056
0.069
0.07
0.016
0.003
0.028
0.032
0.01
0.017
0.024
0.026
0.033
0.045
0.049
0.054
0.054
0.049
0.045
0.048
0.058
0.058
0.048
0.045
0.047
0.032
0.055
0.041
-0.055
-0.004
0.041
0.033
0.016
0.0
-0.013
-0.019
-0.02
-0.029
-0.03
0.022
0.02
-0.017
-0.012
0.03
0.021
0.002
-0.014
-0.027
-0.035
-0.057
-0.061
-0.079
-0.111
-0.12
-0.128
-0.137
-0.141
-0.14
-0.14
-0.144
-0.145
-0.145
-0.145
-0.145
-0.144
-0.152
-0.155
-0.166
-0.18
-0.138
-0.133
-0.153
-0.162
-0.17
-0.182
-0.193
-0.194
-0.189
-0.19
-0.195
-0.224
-0.249
-0.203
-0.1
-0.082
-0.055
-0.02
0.037
0.135
0.173
0.252
0.365
0.463
0.53
0.568
0.702
0.785
0.803
0.86
0.784
0.633
0.417
0.208
0.045
-0.228
-0.374
-0.396
-0.401
-0.39
-0.344
-0.292
-0.251
-0.198
-0.145
-0.169
-0.17
-0.154
-0.148
-0.14
-0.132
-0.12
-0.112
-0.109
-0.105
-0.105
-0.105
-0.105
-0.105
-0.105
-0.104
-0.111
-0.115
-0.107
-0.105
-0.133
-0.115
-0.052
-0.038
-0.09
-0.062
-0.002
-0.066
-0.164
-0.11
-0.047
-0.048
-0.081
-0.086
-0.045
-0.004
-0.005
-0.022
-0.033
-0.045
-0.058
-0.067
-0.088
-0.089
-0.035
0.017
0.033
0.025
0.019
0.015
-0.006
-0.012
-0.008
-0.004
0.0
0.0
0.001
-0.002
-0.005
0.0
0.0
0.001
0.011
-0.005
-0.04
0.011
0.036
0.007
-0.017
-0.01
-0.01
-0.007
-0.004
-0.005
-0.005
-0.002
0.007
0.009
0.032
0.085
0.083
0.079
0.078
0.075
0.08
0.088
0.096
0.104
0.112
0.115
0.096
0.071
0.051
0.037
0.02
-0.028
-0.1
-0.115
-0.068
-0.045
-0.071
-0.062
-0.031
-0.027
-0.045
-0.046
-0.041
-0.04
-0.039
-0.035
-0.036
-0.029
-0.041
-0.063
-0.06
-0.063
-0.068
-0.072
-0.076
-0.08
-0.08
-0.079
-0.082
-0.085
-0.085
-0.092
-0.075
-0.077
-0.062
0.01
0.006
-0.005
-0.008
-0.016
-0.005
0.048
0.147
0.214
0.308
0.49
0.578
0.668
0.781
0.902
0.985
0.896
0.752
0.606
0.441
0.24
0.0
-0.217
-0.329
-0.346
-0.35
-0.362
-0.372
-0.359
-0.327
-0.295
-0.247
-0.202
-0.157
-0.126
-0.13
-0.135
-0.135
-0.137
-0.14
-0.14
-0.146
-0.131
-0.098
-0.088
-0.115
-0.122
-0.144
-0.172
-0.135
-0.05
-0.096
-0.178
-0.139
-0.056
-0.075
-0.082
-0.074
-0.066
-0.058
-0.05
-0.039
-0.05
-0.003
0.052
0.01
-0.003
0.012
-0.023
-0.058
-0.015
-0.014
-0.009
-0.025
-0.079
-0.115
-0.103
-0.07
-0.043
-0.009
0.01
-0.051
-0.037
0.034
0.049
0.005
0.02
0.025
0.019
0.02
0.015
0.013
0.02
-0.018
-0.047
0.0
0.011
0.012
0.019
0.028
0.035
0.036
0.063
0.041
-0.003
0.025
0.043
0.05
0.061
0.064
0.05
0.034
0.021
0.009
-0.003
-0.015
-0.029
-0.022
-0.012
-0.008
0.0
0.001
0.03
0.048
0.037
0.03
0.023
0.004
-0.026
-0.04
-0.03
-0.051
-0.117
-0.089
-0.012
-0.035
-0.05
-0.051
-0.081
-0.121
-0.13
-0.142
-0.111
-0.065
-0.05
-0.06
-0.063
-0.078
-0.101
-0.118
-0.13
-0.14
-0.131
-0.124
-0.143
-0.15
-0.074
-0.06
-0.085
-0.091
-0.11
-0.147
-0.1
-0.048
-0.044
-0.035
-0.023
-0.014
-0.005
0.009
0.015
-0.003
-0.03
-0.045
-0.061
-0.075
-0.032
-0.035
-0.057
-0.072
-0.105
-0.107
-0.101
-0.067
-0.06
-0.125
-0.111
-0.079
-0.113
-0.149
-0.1
-0.058
-0.029
-0.004
-0.032
-0.105
-0.075
-0.026
-0.031
-0.067
-0.08
-0.08
-0.083
-0.086
-0.085
-0.085
-0.09
-0.087
-0.086
-0.082
-0.065
-0.055
-0.017
0.081
0.141
0.115
0.183
0.256
0.317
0.398
0.485
0.55
0.716
0.858
0.887
0.86
0.776
0.702
0.568
0.373
0.185
-0.021
-0.127
-0.222
-0.31
-0.295
-0.284
-0.289
-0.272
-0.237
-0.215
-0.202
-0.197
-0.177
-0.186
-0.24
-0.202
-0.144
-0.128
-0.137
-0.14
-0.144
-0.148
-0.152
-0.157
-0.16
-0.147
-0.118
-0.147
-0.175
-0.12
-0.128
-0.149
-0.16
-0.183
-0.19
-0.113
-0.074
-0.076
-0.074
-0.075
-0.08
-0.074
-0.088
-0.123
-0.155
-0.181
-0.051
0.026
0.027
0.095
0.032
0.009
0.024
0.018
0.005
-0.018
-0.015
-0.028
-0.051
-0.035
-0.027
-0.05
-0.058
-0.051
-0.06
-0.034
-0.003
-0.01
-0.032
-0.025
-0.02
-0.021
-0.018
-0.015
-0.015
0.002
0.004
-0.001
0.0
-0.005
-0.008
0.014
0.058
0.071
0.03
0.019
0.018
-0.022
-0.056
-0.025
-0.002
0.001
0.013
-0.019
-0.13
-0.162
-0.04
0.033
0.006
-0.005
-0.044
0.025
0.047
-0.051
-0.11
-0.072
-0.014
-0.015
-0.043
-0.035
-0.03
-0.029
-0.034
-0.04
-0.03
-0.023
-0.039
-0.057
-0.068
-0.085
-0.101
-0.078
-0.049
-0.073
-0.12
-0.087
-0.056
-0.061
-0.079
-0.085
-0.072
-0.072
-0.076
-0.074
-0.075
-0.08
-0.075
-0.1
-0.115
-0.075
-0.1
-0.095
-0.07
-0.056
-0.035
-0.019
-0.002
0.01
0.035
0.11
0.233
0.386
0.475
0.494
0.54
0.646
0.743
0.696
0.572
0.5
0.337
0.125
-0.046
-0.161
-0.25
-0.296
-0.296
-0.238
-0.158
-0.12
-0.108
-0.089
-0.079
-0.106
-0.14
-0.11
-0.085
-0.073
-0.047
-0.02
-0.015
-0.012
-0.01
-0.009
-0.005
-0.001
0.003
-0.009
-0.028
-0.035
-0.043
-0.048
-0.052
-0.055
-0.055
-0.059
-0.06
-0.062
-0.066
-0.065
-0.061
-0.057
-0.053
-0.048
-0.04
-0.036
-0.029
-0.038
-0.023
0.045
0.02
-0.163
-0.14
0.031
0.0
-0.003
-0.002
-0.005
-0.015
-0.02
0.051
0.072
0.063
0.065
0.06
0.06
0.057
0.056
0.061
0.06
0.06
0.059
0.062
0.065
0.06
0.049
0.031
0.024
0.032
0.04
0.044
0.047
0.054
0.061
0.06
0.052
0.049
0.052
0.055
0.055
0.058
0.033
0.033
0.05
0.03
0.012
0.008
-0.002
0.009
0.06
0.068
0.057
0.058
0.057
0.04
0.033
0.015
0.001
0.008
0.01
-0.023
-0.034
-0.027
-0.025
-0.025
-0.024
-0.031
-0.036
-0.035
-0.04
-0.047
-0.027
-0.027
-0.038
-0.02
-0.034
-0.027
-0.069
-0.123
-0.08
-0.042
-0.05
-0.065
-0.055
-0.04
-0.052
-0.052
-0.04
-0.034
-0.025
-0.013
-0.07
-0.089
-0.038
-0.015
-0.03
-0.047
-0.049
-0.036
0.0
0.072
0.097
0.129
0.196
0.26
0.335
0.377
0.423
0.492
0.55
0.618
0.785
0.871
0.812
0.745
0.676
0.571
0.385
0.155
-0.055
-0.256
-0.329
-0.334
-0.358
-0.375
-0.338
-0.291
-0.265
-0.252
-0.235
-0.218
-0.209
-0.183
-0.159
-0.175
-0.188
-0.199
-0.212
-0.222
-0.2
-0.119
-0.106
-0.127
-0.131
-0.145
-0.16
-0.112
-0.079
-0.093
-0.095
-0.099
-0.101
-0.099
-0.111
-0.135
-0.132
-0.129
-0.13
-0.131
-0.125
-0.08
0.014
0.057
0.035
0.03
0.037
0.048
0.046
0.031
0.015
-0.01
-0.055
-0.037
-0.018
-0.09
-0.089
-0.049
-0.014
0.019
0.045
0.02
-0.017
-0.021
0.009
0.035
0.036
0.038
0.04
0.041
0.04
0.01
0.008
0.017
0.015
0.02
0.021
0.017
0.012
0.001
-0.005
0.016
0.019
0.013
0.008
0.0
-0.004
-0.012
-0.015
-0.016
-0.025
-0.029
-0.033
-0.038
-0.039
-0.035
-0.037
-0.02
0.012
0.032
0.035
0.05
-0.001
-0.036
-0.023
-0.03
-0.035
-0.035
-0.037
-0.041
-0.045
-0.055
-0.084
-0.145
-0.188
-0.165
-0.152
-0.138
-0.124
-0.101
-0.055
-0.024
-0.051
-0.077
-0.075
-0.08
-0.089
-0.091
-0.103
-0.116
-0.11
-0.112
-0.128
-0.12
-0.097
-0.1
-0.109
-0.111
-0.109
-0.112
-0.11
-0.067
-0.061
-0.074
-0.076
-0.08
-0.084
-0.088
-0.09
-0.073
-0.045
-0.044
-0.045
-0.046
-0.043
-0.045
-0.08
-0.114
-0.149
-0.171
-0.15
-0.119
-0.084
-0.061
-0.037
-0.025
-0.084
-0.061
-0.063
-0.108
-0.075
-0.044
-0.035
-0.035
-0.034
-0.03
-0.025
-0.028
-0.029
-0.041
-0.07
-0.063
-0.056
-0.053
-0.05
-0.055
-0.055
-0.058
-0.059
-0.062
-0.065
-0.027
0.053
0.096
0.106
0.135
0.146
0.244
0.345
0.408
0.51
0.614
0.589
0.685
0.829
0.73
0.649
0.621
0.523
0.302
0.095
0.046
-0.142
-0.267
-0.235
-0.245
-0.249
-0.253
-0.239
-0.208
-0.185
-0.157
-0.132
-0.121
-0.111
-0.105
-0.135
-0.066
-0.017
-0.038
-0.035
-0.039
-0.038
-0.048
-0.062
-0.06
-0.064
-0.065
-0.067
-0.07
-0.07
-0.073
-0.09
-0.137
-0.128
-0.03
-0.029
-0.04
-0.044
-0.058
-0.065
-0.075
-0.094
-0.051
0.013
0.005
0.016
0.057
0.068
0.027
0.005
0.067
0.046
0.001
0.01
0.0
-0.085
-0.099
-0.08
-0.06
-0.015
-0.031
-0.057
-0.024
0.036
0.045
0.032
0.069
0.093
0.077
0.075
0.071
0.067
0.063
0.059
0.04
-0.015
0.009
0.076
0.09
0.05
0.04
0.035
0.044
0.071
0.08
0.072
0.064
0.054
0.042
0.035
0.028
0.014
0.031
0.092
0.135
0.113
0.123
0.103
0.054
0.06
0.065
0.067
0.059
0.077
0.11
0.02
-0.044
-0.049
-0.045
-0.05
-0.05
-0.049
-0.037
-0.022
-0.02
-0.024
-0.028
-0.032
-0.036
-0.04
-0.042
-0.062
-0.052
-0.002
0.02
-0.033
-0.054
-0.048
-0.051
-0.05
-0.041
-0.045
-0.052
-0.067
-0.105
-0.114
-0.088
-0.07
-0.079
-0.095
-0.101
-0.13
-0.166
-0.136
-0.055
-0.079
-0.065
-0.021
0.008
0.04
0.067
0.105
0.16
0.245
0.34
0.378
0.413
0.456
0.476
0.515
0.686
0.743
0.658
0.543
0.38
0.058
-0.095
-0.243
-0.394
-0.335
-0.29
-0.309
-0.301
-0.247
-0.205
-0.166
-0.118
-0.079
-0.071
-0.08
-0.07
-0.052
-0.039
-0.026
-0.02
-0.051
-0.042
-0.013
0.004
0.015
0.0
-0.018
-0.017
-0.037
-0.085
-0.05
0.003
0.014
-0.004
-0.015
-0.024
-0.025
-0.044
-0.067
-0.06
-0.064
-0.066
-0.065
-0.065
-0.065
-0.071
-0.055
-0.025
-0.008
-0.01
-0.01
-0.013
-0.015
-0.015
-0.02
-0.022
-0.003
0.035
0.046
-0.005
-0.05
-0.015
0.016
0.002
0.0
0.0
0.003
0.005
0.006
0.015
0.027
0.07
0.096
0.079
0.065
0.09
0.09
0.072
0.063
0.055
0.043
0.035
0.023
0.025
0.05
0.036
0.015
0.009
0.018
0.02
-0.006
-0.004
-0.007
-0.01
0.045
0.102
0.111
0.102
0.099
0.095
0.095
0.092
0.09
0.089
0.085
0.086
0.036
-0.028
-0.034
-0.015
-0.083
-0.087
-0.065
-0.079
-0.08
-0.05
-0.045
-0.053
-0.047
-0.025
0.008
0.026
0.034
0.042
0.06
0.085
-0.008
-0.073
-0.051
-0.05
-0.05
-0.048
-0.04
-0.036
-0.04
-0.021
-0.001
0.008
0.01
0.01
0.014
0.02
0.032
0.041
0.05
0.074
0.023
0.012
0.082
0.12
0.124
0.209
0.321
0.407
0.49
0.541
0.579
0.674
0.785
0.8
0.747
0.683
0.645
0.551
0.335
0.138
-0.024
-0.177
-0.29
-0.34
-0.395
-0.374
-0.322
-0.285
-0.235
-0.185
-0.153
-0.14
-0.134
-0.13
-0.13
-0.127
-0.123
-0.118
-0.11
-0.102
-0.095
-0.1
-0.103
-0.095
-0.106
-0.084
-0.069
-0.091
-0.095
-0.046
-0.027
-0.062
-0.093
-0.09
-0.098
-0.031
0.013
-0.003
0.0
0.0
0.001
-0.004
0.007
0.045
0.041
0.013
0.009
0.039
0.065
0.06
0.066
0.018
-0.048
-0.035
-0.028
-0.038
0.013
0.058
0.005
0.013
0.034
0.046
0.058
0.07
0.075
0.075
0.075
0.076
0.08
0.08
0.079
0.082
0.084
0.08
0.084
0.086
0.082
0.072
0.06
0.056
0.046
0.035
0.028
0.02
0.02
0.017
0.015
0.015
0.015
0.023
0.028
0.033
0.042
0.05
0.053
0.065
0.052
0.027
0.03
0.026
0.028
0.029
0.024
0.025
0.026
0.02
0.01
0.004
0.0
-0.009
-0.01
-0.013
-0.004
0.025
0.018
0.01
-0.005
-0.003
0.035
0.025
0.012
0.008
-0.004
-0.025
-0.046
-0.06
-0.054
-0.044
-0.055
-0.072
-0.077
-0.088
-0.065
0.005
-0.022
-0.064
-0.084
-0.117
-0.135
-0.044
-0.015
-0.028
-0.024
-0.025
-0.025
-0.025
-0.026
-0.023
-0.01
0.0
-0.012
-0.039
-0.049
-0.035
-0.024
0.004
0.076
0.057
-0.1
-0.088
-0.06
-0.056
-0.041
-0.03
-0.028
0.022
0.014
-0.033
0.01
0.057
0.01
-0.024
0.008
0.025
0.018
0.009
0.001
0.001
0.0
-0.034
-0.041
-0.032
-0.029
-0.025
-0.024
0.007
0.066
0.077
0.025
0.046
0.069
0.101
0.178
0.265
0.306
0.353
0.404
0.463
0.555
0.665
0.75
0.822
0.863
0.82
0.731
0.722
0.634
0.396
0.185
0.084
-0.107
-0.222
-0.184
-0.195
-0.313
-0.306
-0.22
-0.189
-0.19
-0.126
-0.083
-0.068
-0.059
-0.055
-0.047
-0.042
-0.037
-0.027
-0.015
-0.012
-0.032
-0.023
-0.033
-0.105
-0.079
-0.033
-0.03
-0.047
-0.045
-0.041
-0.039
-0.043
-0.052
-0.055
-0.057
-0.078
-0.097
-0.092
-0.05
0.036
0.05
0.024
0.022
0.035
0.043
0.055
0.076
0.083
0.06
0.041
0.049
0.069
0.083
0.08
0.047
0.034
0.032
0.006
-0.02
0.004
-0.02
-0.031
0.002
0.02
0.033
0.036
0.035
0.035
0.035
0.033
0.05
0.063
0.059
0.06
0.06
0.06
0.06
0.06
0.06
0.065
0.064
0.071
0.089
0.1
0.096
0.093
0.098
0.107
0.115
0.123
0.128
0.134
0.15
0.16
0.123
0.077
0.065
0.078
0.085
0.085
0.084
0.087
0.09
0.085
0.08
0.082
0.073
0.066
0.055
-0.027
-0.028
0.024
0.039
0.02
0.003
-0.009
-0.023
-0.038
-0.05
-0.067
-0.073
-0.079
-0.076
-0.04
-0.002
0.018
0.002
-0.014
0.005
0.007
0.002
-0.001
0.001
-0.01
-0.067
-0.063
-0.051
-0.077
-0.09
-0.065
-0.024
-0.023
-0.049
-0.05
-0.062
-0.102
-0.093
-0.049
-0.05
-0.039
-0.029
-0.02
-0.007
0.005
0.022
0.028
0.037
0.053
0.055
0.049
0.022
-0.024
-0.026
0.0
-0.093
-0.103
-0.07
-0.07
-0.065
-0.064
-0.037
-0.007
0.009
0.025
0.042
0.046
0.045
0.045
0.045
0.045
0.039
0.015
-0.025
-0.045
-0.011
0.022
0.035
0.041
0.045
0.049
0.053
0.056
0.071
0.105
0.131
0.141
0.153
0.194
0.265
0.352
0.481
0.564
0.649
0.785
0.762
0.846
0.87
0.735
0.655
0.667
0.536
0.321
0.145
-0.01
-0.162
-0.24
-0.332
-0.438
-0.435
-0.333
-0.168
-0.065
-0.056
-0.06
-0.057
-0.049
-0.04
-0.034
-0.03
-0.022
-0.017
-0.011
-0.004
-0.005
-0.001
0.003
0.007
0.002
-0.015
-0.024
-0.028
-0.033
-0.053
-0.075
-0.044
-0.054
-0.076
-0.075
-0.08
-0.087
-0.067
-0.051
-0.056
-0.055
-0.047
-0.039
-0.031
-0.023
-0.015
-0.003
0.011
0.033
0.062
0.085
0.092
0.107
0.069
-0.03
-0.095
-0.07
-0.045
-0.018
0.016
0.045
0.101
0.039
-0.017
0.006
0.02
0.039
0.065
0.094
0.112
0.115
0.121
0.106
0.09
0.09
0.09
0.086
0.082
0.078
0.074
0.075
0.088
0.088
0.084
0.085
0.08
0.076
0.072
0.07
0.07
0.07
0.07
0.07
0.071
0.076
0.08
0.08
0.083
0.086
0.093
0.095
0.039
-0.034
-0.041
0.005
0.035
0.074
0.115
0.089
-0.004
-0.065
-0.026
0.029
0.035
0.001
-0.02
-0.009
0.005
0.016
0.028
0.04
0.036
0.001
-0.001
0.03
0.025
0.0
-0.013
-0.015
-0.015
-0.015
-0.015
-0.016
-0.012
-0.02
-0.055
-0.087
-0.088
-0.102
-0.111
-0.075
-0.073
-0.073
-0.068
-0.072
-0.085
-0.092
-0.041
-0.007
0.001
0.05
0.095
0.133
0.166
0.208
0.27
0.341
0.411
0.433
0.507
0.71
0.822
0.856
0.854
0.736
0.495
0.351
0.17
-0.041
-0.161
-0.185
-0.249
-0.255
-0.217
-0.215
-0.235
-0.181
-0.131
-0.099
-0.067
-0.03
0.008
0.024
0.011
-0.009
-0.015
-0.015
-0.014
-0.017
-0.021
-0.02
-0.019
-0.025
-0.019
-0.002
0.005
0.011
0.03
0.014
-0.009
0.03
0.06
0.041
0.048
0.077
0.065
0.065
0.059
0.054
0.046
0.04
0.053
-0.051
-0.097
-0.022
0.02
0.038
0.079
0.095
0.077
0.065
0.035
0.031
0.035
0.029
0.03
0.047
0.077
0.033
-0.022
0.03
0.074
0.086
0.084
0.086
0.09
0.095
0.093
0.086
0.078
0.075
0.084
0.078
0.064
0.059
0.06
0.07
0.092
0.1
0.094
0.095
0.096
0.09
0.096
0.096
0.06
0.036
0.043
0.053
0.057
0.065
0.061
0.096
0.118
0.109
0.115
0.117
0.136
0.129
0.082
0.05
0.058
0.019
-0.01
0.003
0.005
0.008
0.017
-0.012
-0.047
-0.025
-0.006
-0.01
-0.018
-0.02
-0.025
-0.035
-0.027
-0.016
-0.006
0.015
0.027
0.043
0.07
0.085
0.06
0.022
0.005
-0.008
-0.012
0.015
0.037
0.045
0.058
0.055
0.015
-0.015
-0.036
-0.068
-0.075
-0.025
0.018
0.04
0.08
0.138
0.185
0.249
0.342
0.4
0.449
0.575
0.716
0.775
0.864
0.934
0.825
0.68
0.576
0.427
0.209
-0.005
-0.185
-0.258
-0.3
-0.321
-0.26
-0.208
-0.228
-0.323
-0.292
-0.075
-0.059
-0.078
-0.076
-0.081
-0.08
-0.084
-0.085
-0.085
-0.085
-0.085
-0.085
-0.085
-0.085
-0.085
-0.085
-0.085
-0.085
-0.085
-0.085
-0.085
-0.085
-0.085
-0.085
-0.085
-0.085
-0.085
-0.085
-0.085
-0.085
-0.085
-0.085
-0.085
-0.085
-0.085
-0.085
-0.085
-0.085
-0.085
-0.085
-0.085
-0.085
-0.085
-0.085
-0.085
-0.085
-0.085
-0.085
-0.085
-0.085
-0.085
-0.085
-0.085
-0.085
-0.085
-0.085
-0.085
-0.085
-0.085
-0.085
-0.06
-0.06
-0.06
-0.061
-0.058
-0.06
-0.075
0.012
0.072
0.051
0.05
0.044
0.024
0.013
0.016
0.02
0.038
0.067
0.073
0.055
0.04
0.029
0.01
0.041
0.082
0.035
-0.021
0.028
0.063
0.07
0.125
0.091
0.036
0.032
0.07
0.09
0.075
0.13
0.161
0.137
0.15
0.169
0.156
0.125
0.117
0.145
0.174
0.155
0.118
0.087
0.065
0.087
0.116
0.146
0.186
0.22
0.21
0.194
0.186
0.178
0.17
0.167
0.156
0.146
0.137
0.125
0.116
0.11
0.095
0.058
0.045
0.137
0.159
0.14
0.139
0.13
0.126
0.116
0.105
0.107
0.13
0.161
0.122
0.052
0.007
-0.015
-0.008
0.098
0.053
-0.066
0.03
0.104
0.067
-0.013
-0.001
0.095
0.067
0.049
0.055
0.05
0.055
0.055
0.021
0.003
0.011
0.005
0.004
0.008
-0.006
-0.028
-0.025
-0.02
-0.021
-0.017
-0.016
-0.035
-0.065
-0.04
-0.03
-0.061
-0.06
-0.021
-0.017
-0.029
-0.031
-0.04
-0.047
-0.021
0.048
0.056
-0.03
-0.011
0.017
0.023
0.033
0.04
0.039
0.046
0.05
0.051
0.05
0.018
-0.002
-0.007
0.026
0.065
-0.036
-0.039
0.033
0.044
0.005
0.021
0.049
0.039
0.028
0.065
0.093
0.124
0.136
0.128
0.125
0.117
0.109
0.1
0.095
0.085
0.057
0.105
0.159
0.165
0.195
0.299
0.384
0.449
0.524
0.585
0.619
0.751
0.851
0.864
0.87
0.799
0.735
0.63
0.463
0.28
0.051
-0.109
-0.171
-0.207
-0.245
-0.21
-0.188
-0.177
-0.136
-0.08
-0.059
-0.039
-0.028
-0.031
-0.03
-0.032
-0.043
-0.008
0.032
-0.04
-0.17
-0.052
0.043
-0.026
-0.045
-0.025
-0.014
-0.017
-0.012
-0.005
-0.033
-0.05
-0.049
-0.052
-0.045
0.019
0.028
0.008
0.004
-0.005
-0.017
-0.026
-0.034
-0.042
-0.04
-0.007
0.006
0.006
0.011
0.015
0.031
0.108
0.093
0.018
0.055
0.087
0.087
0.071
0.058
0.055
0.055
0.052
0.047
0.027
0.005
0.045
0.069
0.085
0.102
0.095
0.087
0.112
0.127
0.118
0.115
0.111
0.106
0.106
0.111
0.115
0.115
0.117
0.123
0.125
0.125
0.137
0.147
0.152
0.157
0.16
0.15
0.163
0.168
0.151
0.14
0.128
0.119
0.111
0.103
0.095
0.095
0.161
0.174
0.102
0.065
0.086
0.082
0.06
0.048
0.035
0.009
0.008
0.052
0.087
0.065
0.058
0.066
0.056
0.073
0.13
0.087
0.035
-0.007
-0.022
0.005
-0.019
-0.089
-0.071
-0.001
-0.015
-0.02
0.008
0.005
-0.024
-0.025
-0.033
-0.04
-0.054
-0.056
-0.035
-0.053
-0.074
-0.087
-0.114
-0.125
-0.045
-0.028
-0.044
-0.048
-0.065
-0.058
-0.053
-0.043
-0.037
-0.05
-0.039
-0.029
-0.033
-0.033
-0.02
-0.015
-0.015
-0.014
-0.017
-0.03
-0.037
-0.054
-0.075
-0.086
-0.08
-0.066
-0.066
-0.042
-0.022
-0.045
-0.022
-0.008
-0.03
-0.052
-0.045
-0.036
-0.035
-0.034
-0.028
-0.02
-0.02
-0.018
-0.012
-0.002
0.01
0.018
0.03
0.037
0.043
0.06
0.068
0.082
0.096
0.109
0.13
0.17
0.275
0.334
0.369
0.49
0.594
0.705
0.773
0.817
0.875
0.823
0.77
0.704
0.561
0.36
0.163
-0.02
-0.118
-0.158
-0.21
-0.19
-0.158
-0.164
-0.19
-0.175
-0.1
-0.073
-0.073
-0.072
-0.09
-0.099
-0.106
-0.114
-0.122
-0.13
-0.14
-0.128
-0.068
-0.015
-0.03
-0.039
-0.042
-0.048
-0.058
-0.065
-0.067
-0.086
-0.047
0.01
-0.01
-0.019
-0.026
-0.05
-0.064
-0.035
0.008
0.021
0.021
0.026
0.03
0.034
0.038
0.041
0.04
0.035
0.025
0.036
0.051
0.075
0.11
0.085
0.05
0.036
0.044
0.07
0.093
0.087
0.061
0.043
0.035
0.01
0.04
0.092
0.076
0.02
0.069
0.107
0.111
0.109
0.105
0.107
0.095
0.122
0.129
0.055
0.062
0.083
0.068
0.049
0.065
0.082
0.091
0.116
0.108
0.08
0.202
0.215
0.155
0.129
0.105
0.082
0.087
0.1
0.108
0.125
0.136
0.122
0.101
0.086
0.065
0.042
0.047
0.061
0.066
0.075
0.092
0.063
0.022
-0.027
-0.09
-0.073
-0.053
-0.045
-0.031
-0.005
0.03
0.032
0.023
0.017
-0.015
-0.052
-0.008
0.024
0.0
-0.01
-0.022
-0.031
-0.042
-0.078
-0.13
-0.124
-0.018
0.026
-0.018
-0.025
-0.03
-0.06
-0.081
-0.079
-0.08
-0.088
-0.058
-0.035
-0.041
-0.04
-0.049
-0.045
-0.036
-0.027
-0.02
-0.028
-0.033
-0.039
-0.036
-0.01
0.012
0.019
0.021
0.027
0.03
0.013
0.007
-0.017
-0.067
-0.105
-0.112
-0.096
-0.076
-0.062
-0.045
-0.024
-0.014
-0.004
-0.002
0.0
0.055
0.097
0.077
0.066
0.09
-0.003
-0.075
-0.055
0.011
0.06
0.074
0.081
0.089
0.098
0.11
0.118
0.126
0.115
0.099
0.125
0.2
0.274
0.352
0.451
0.535
0.577
0.721
0.844
0.886
0.93
0.925
0.866
0.732
0.55
0.365
0.155
-0.024
-0.172
-0.253
-0.235
-0.225
-0.221
-0.206
-0.203
-0.225
-0.226
-0.225
-0.207
-0.172
-0.15
-0.138
-0.128
-0.127
-0.148
-0.155
-0.07
0.01
0.02
-0.014
-0.03
-0.013
-0.014
-0.021
-0.03
-0.055
-0.066
-0.097
-0.172
-0.178
-0.055
-0.001
0.026
0.018
-0.015
-0.02
-0.025
-0.02
-0.01
-0.004
0.0
0.008
0.014
0.016
0.023
0.04
0.059
0.055
0.063
0.056
0.015
0.047
0.057
0.046
0.044
0.04
0.038
0.019
0.007
0.011
0.02
0.048
0.038
0.034
0.054
0.06
0.059
0.066
0.073
0.076
0.08
0.092
0.105
0.114
0.123
0.135
0.143
0.154
0.148
0.133
0.135
0.135
0.138
0.14
0.141
0.15
0.157
0.137
0.105
0.088
0.1
0.123
0.049
0.023
0.1
0.15
0.14
0.127
0.123
0.111
0.095
0.091
0.084
0.077
0.074
0.065
0.041
0.017
-0.009
-0.027
-0.025
-0.02
-0.023
-0.023
-0.02
-0.025
-0.03
-0.03
-0.032
-0.036
-0.04
-0.044
-0.044
-0.035
-0.039
-0.065
-0.083
-0.149
-0.11
-0.078
-0.18
-0.034
0.002
-0.048
-0.067
-0.105
-0.13
-0.145
-0.106
-0.08
-0.14
-0.162
-0.174
-0.117
-0.042
-0.06
-0.069
-0.076
-0.08
-0.073
-0.07
-0.07
-0.037
-0.016
-0.02
-0.015
-0.023
-0.029
-0.031
-0.028
-0.035
-0.089
-0.073
-0.072
-0.101
-0.08
-0.093
-0.083
-0.044
-0.034
-0.065
-0.055
-0.039
-0.032
-0.012
-0.005
-0.091
-0.089
-0.025
0.003
0.0
0.003
-0.023
-0.034
-0.017
-0.01
-0.002
0.007
0.011
0.027
0.03
-0.059
-0.033
0.067
0.106
0.1
0.157
0.225
0.317
0.442
0.565
0.675
0.733
0.787
0.901
1.005
0.922
0.815
0.751
0.631
0.4
0.192
0.041
-0.142
-0.289
-0.3
-0.333
-0.299
-0.226
-0.183
-0.165
-0.148
-0.143
-0.146
-0.144
-0.14
-0.14
-0.141
-0.138
-0.135
-0.135
-0.135
-0.132
-0.129
-0.131
-0.13
-0.12
-0.191
-0.13
0.005
-0.03
-0.049
-0.057
-0.058
-0.075
-0.105
-0.051
-0.041
-0.064
-0.071
-0.08
-0.107
-0.097
-0.049
-0.017
-0.03
-0.04
-0.035
-0.025
-0.019
-0.015
-0.01
-0.019
-0.044
-0.044
0.01
0.061
0.053
0.034
0.017
-0.02
-0.021
0.008
-0.009
-0.049
-0.045
-0.072
-0.093
-0.06
0.004
0.035
0.032
0.057
0.038
0.007
0.07
0.129
0.101
0.109
0.127
0.06
0.075
0.103
0.084
0.058
0.065
0.061
0.062
0.065
0.066
0.07
0.07
0.073
0.076
0.075
0.075
0.079
0.08
0.082
0.085
0.085
0.089
0.093
0.081
0.052
0.025
0.023
0.037
0.082
0.054
-0.08
-0.049
0.006
0.016
0.016
0.02
-0.002
-0.035
-0.046
-0.038
-0.035
-0.031
-0.027
-0.023
-0.019
-0.015
-0.025
-0.085
-0.11
-0.068
-0.05
-0.109
-0.118
-0.114
-0.133
-0.135
-0.148
-0.146
-0.134
-0.13
-0.145
-0.164
-0.086
-0.056
-0.128
-0.165
-0.142
-0.128
-0.132
-0.127
-0.11
-0.102
-0.058
-0.042
-0.063
-0.065
-0.073
-0.075
-0.044
-0.013
-0.03
-0.047
-0.061
-0.079
-0.084
-0.085
-0.136
-0.178
-0.168
-0.141
-0.14
-0.138
-0.119
-0.092
-0.079
-0.07
-0.033
-0.05
-0.096
-0.117
-0.13
-0.152
-0.045
0.032
0.011
0.01
0.006
0.006
-0.003
-0.034
-0.055
-0.011
0.049
0.067
0.06
0.06
0.026
0.023
0.065
0.106
0.12
0.168
0.272
0.348
0.414
0.55
0.679
0.736
0.803
0.92
0.99
0.931
0.888
0.767
0.564
0.39
0.144
-0.09
-0.232
-0.281
-0.295
-0.319
-0.295
-0.233
-0.205
-0.235
-0.245
-0.212
-0.189
-0.19
-0.185
-0.177
-0.172
-0.168
-0.164
-0.16
-0.156
-0.152
-0.148
-0.144
-0.14
-0.141
-0.13
-0.109
-0.101
-0.135
-0.203
-0.149
-0.056
-0.028
-0.035
-0.031
-0.03
-0.027
-0.036
-0.065
-0.058
-0.054
-0.054
-0.049
-0.045
-0.041
-0.038
-0.044
-0.024
0.025
0.016
-0.003
-0.002
0.015
0.02
-0.014
-0.019
-0.004
0.0
0.0
0.008
-0.021
-0.032
-0.029
-0.06
-0.048
-0.013
0.004
0.016
0.035
-0.002
-0.042
-0.031
0.026
0.065
0.037
0.029
0.038
0.042
0.055
0.064
0.067
0.076
0.078
0.055
0.027
0.034
0.053
0.063
0.075
0.087
0.098
0.115
0.115
0.075
0.048
0.041
0.038
0.035
0.035
0.029
0.007
0.003
0.035
0.045
-0.03
-0.049
-0.039
-0.046
-0.045
-0.048
-0.059
-0.07
-0.077
-0.085
-0.093
-0.098
-0.102
-0.106
-0.11
-0.114
-0.117
-0.127
-0.134
-0.125
-0.123
-0.102
-0.085
-0.084
-0.065
-0.036
-0.122
-0.181
-0.164
-0.17
-0.138
-0.084
-0.075
-0.108
-0.13
-0.142
-0.154
-0.148
-0.124
-0.12
-0.148
-0.131
-0.11
-0.116
-0.115
-0.107
-0.104
-0.106
-0.104
-0.095
-0.077
-0.084
-0.104
-0.11
-0.1
-0.09
-0.099
-0.107
-0.104
-0.1
-0.097
-0.122
-0.169
-0.197
-0.18
-0.148
-0.116
-0.084
-0.062
-0.07
-0.097
-0.095
-0.091
-0.104
-0.115
-0.121
-0.148
-0.16
-0.147
-0.135
-0.097
-0.05
-0.048
-0.064
-0.035
-0.018
-0.006
0.006
0.017
0.025
0.032
0.045
0.054
0.082
0.145
0.194
0.275
0.371
0.456
0.54
0.629
0.74
0.842
0.916
0.94
0.873
0.817
0.714
0.514
0.27
0.031
-0.141
-0.263
-0.336
-0.34
-0.32
-0.303
-0.285
-0.258
-0.23
-0.201
-0.152
-0.184
-0.243
-0.205
-0.181
-0.141
-0.077
-0.043
-0.105
-0.258
-0.322
-0.191
-0.067
-0.12
-0.097
-0.097
-0.066
-0.01
-0.035
-0.065
-0.079
-0.079
-0.082
-0.09
-0.085
-0.125
-0.112
-0.052
-0.055
-0.056
-0.055
-0.054
-0.048
-0.04
-0.031
-0.03
-0.028
-0.026
-0.035
-0.044
-0.047
-0.041
-0.042
-0.05
-0.026
-0.014
0.0
-0.019
-0.09
-0.074
-0.023
-0.042
-0.072
-0.045
-0.096
-0.088
-0.052
-0.042
-0.03
-0.024
-0.001
0.012
0.012
0.04
0.075
0.009
-0.036
0.007
0.015
-0.056
-0.036
0.055
0.079
0.025
0.034
0.048
0.055
0.068
0.075
0.086
0.102
0.084
0.05
0.05
0.044
0.021
0.005
0.005
0.005
0.005
0.002
-0.001
0.001
0.0
-0.012
-0.019
-0.021
-0.027
-0.035
-0.039
-0.043
-0.047
-0.051
-0.055
-0.059
-0.063
-0.068
-0.07
-0.07
-0.08
-0.076
-0.129
-0.189
-0.15
-0.114
-0.11
-0.118
-0.12
-0.12
-0.128
-0.134
-0.153
-0.18
-0.17
-0.124
-0.175
-0.197
-0.11
-0.04
-0.072
-0.111
-0.141
-0.171
-0.185
-0.186
-0.181
-0.183
-0.192
-0.19
-0.171
-0.148
-0.137
-0.133
-0.125
-0.125
-0.124
-0.11
-0.074
-0.05
-0.095
-0.107
-0.098
-0.091
-0.085
-0.129
-0.156
-0.132
-0.119
-0.165
-0.193
-0.191
-0.178
-0.168
-0.165
-0.163
-0.144
-0.134
-0.123
-0.08
-0.057
-0.09
-0.148
-0.159
-0.095
-0.037
-0.029
-0.039
-0.04
-0.04
-0.044
-0.046
-0.043
-0.057
-0.075
-0.021
0.025
0.058
0.092
0.135
0.231
0.314
0.39
0.467
0.55
0.69
0.75
0.878
1.0
0.91
0.845
0.764
0.619
0.396
0.125
-0.096
-0.277
-0.358
-0.362
-0.38
-0.38
-0.352
-0.32
-0.293
-0.265
-0.243
-0.199
-0.144
-0.137
-0.205
-0.272
-0.279
-0.264
-0.259
-0.255
-0.247
-0.241
-0.239
-0.233
-0.22
-0.208
-0.196
-0.185
-0.17
-0.155
-0.162
-0.167
-0.16
-0.137
-0.11
-0.113
-0.113
-0.109
-0.11
-0.105
-0.1
-0.1
-0.098
-0.095
-0.095
-0.083
-0.073
-0.068
-0.064
-0.06
-0.062
-0.079
-0.05
-0.007
-0.035
-0.059
-0.049
-0.022
-0.027
-0.065
-0.071
-0.106
-0.113
-0.061
-0.025
-0.046
-0.039
-0.014
0.006
0.025
0.021
0.021
0.028
0.029
0.025
0.029
0.033
0.036
0.024
0.0
0.011
0.022
0.028
0.038
0.05
0.054
0.062
0.066
0.074
0.08
0.026
-0.023
-0.025
0.003
0.025
0.018
0.01
0.012
0.016
0.02
0.024
0.027
0.021
0.023
0.015
-0.069
-0.086
-0.058
-0.058
-0.08
-0.089
-0.096
-0.102
-0.107
-0.12
-0.127
-0.107
-0.075
-0.066
-0.08
-0.084
-0.093
-0.105
-0.112
-0.12
-0.127
-0.149
-0.195
-0.22
-0.195
-0.177
-0.17
-0.127
-0.151
-0.27
-0.193
-0.159
-0.188
-0.195
-0.185
-0.174
-0.193
-0.209
-0.203
-0.2
-0.2
-0.199
-0.189
-0.179
-0.185
-0.193
-0.163
-0.106
-0.08
-0.1
-0.101
-0.097
-0.091
-0.084
-0.08
-0.074
-0.121
-0.149
-0.13
-0.125
-0.134
-0.129
-0.129
-0.161
-0.195
-0.177
-0.157
-0.139
-0.115
-0.09
-0.055
-0.124
-0.173
-0.151
-0.145
-0.114
-0.09
-0.113
-0.142
-0.13
-0.13
-0.124
-0.12
-0.108
-0.065
-0.026
-0.014
-0.015
-0.017
-0.035
-0.058
-0.013
0.056
0.108
0.165
0.238
0.332
0.426
0.537
0.665
0.736
0.801
0.896
0.935
0.865
0.818
0.669
0.469
0.28
0.075
-0.103
-0.226
-0.29
-0.332
-0.37
-0.357
-0.335
-0.314
-0.289
-0.27
-0.255
-0.228
-0.193
-0.163
-0.16
-0.206
-0.186
-0.194
-0.238
-0.215
-0.206
-0.194
-0.176
-0.161
-0.155
-0.166
-0.145
-0.123
-0.119
-0.11
-0.105
-0.104
-0.09
-0.072
-0.07
-0.073
-0.081
-0.087
-0.092
-0.1
-0.096
-0.094
-0.095
-0.095
-0.095
-0.087
-0.085
-0.083
-0.08
-0.08
-0.064
-0.049
-0.013
-0.037
-0.14
-0.1
-0.071
-0.075
-0.05
-0.015
-0.047
-0.091
-0.095
-0.059
-0.035
-0.062
-0.046
-0.01
0.001
0.005
0.013
0.02
0.032
0.023
-0.015
-0.013
-0.008
-0.011
-0.009
-0.005
0.0
-0.001
0.005
0.017
0.02
0.028
0.036
0.043
0.053
0.06
0.043
0.037
0.011
-0.025
-0.025
-0.028
-0.033
-0.037
-0.041
-0.045
-0.045
-0.045
-0.045
-0.045
-0.045
-0.044
-0.05
-0.059
-0.067
-0.075
-0.083
-0.091
-0.1
-0.105
-0.105
-0.109
-0.11
-0.113
-0.113
-0.1
-0.091
-0.086
-0.072
-0.076
-0.11
-0.111
-0.114
-0.142
-0.169
-0.175
-0.19
-0.171
-0.128
-0.102
-0.105
-0.105
-0.109
-0.107
-0.109
-0.15
-0.209
-0.197
-0.146
-0.123
-0.13
-0.134
-0.141
-0.147
-0.151
-0.155
-0.148
-0.131
-0.109
-0.1
-0.105
-0.1
-0.109
-0.114
-0.092
-0.085
-0.133
-0.06
-0.061
-0.178
-0.21
-0.208
-0.193
-0.179
-0.175
-0.17
-0.138
-0.112
-0.1
-0.104
-0.125
-0.146
-0.219
-0.188
-0.085
-0.085
-0.074
-0.061
-0.048
-0.04
-0.05
-0.055
-0.057
-0.064
-0.071
-0.075
-0.08
-0.072
-0.058
-0.048
-0.035
-0.006
0.044
0.077
0.115
0.195
0.259
0.332
0.453
0.592
0.705
0.815
0.836
0.85
0.847
0.745
0.659
0.541
0.364
0.132
-0.105
-0.242
-0.325
-0.375
-0.42
-0.47
-0.447
-0.399
-0.349
-0.307
-0.285
-0.258
-0.225
-0.197
-0.166
-0.15
-0.199
-0.176
-0.094
-0.07
-0.115
-0.107
-0.09
-0.143
-0.199
-0.18
-0.192
-0.185
-0.139
-0.127
-0.175
-0.164
-0.134
-0.136
-0.134
-0.105
-0.132
-0.178
-0.158
-0.108
-0.11
-0.102
-0.097
-0.091
-0.084
-0.08
-0.071
-0.074
-0.069
-0.051
-0.035
-0.015
-0.001
-0.003
-0.012
-0.02
-0.026
-0.02
-0.044
-0.097
-0.115
-0.086
-0.111
-0.099
-0.059
-0.075
-0.027
-0.001
0.035
0.027
-0.07
-0.02
0.065
0.071
0.042
0.055
0.064
0.07
0.081
0.073
0.03
0.006
0.012
0.025
0.032
0.04
0.05
0.042
0.032
0.029
0.02
0.012
0.004
-0.002
-0.006
-0.01
-0.012
-0.031
-0.041
-0.033
-0.03
-0.026
-0.024
-0.025
-0.016
-0.02
-0.094
-0.09
-0.019
-0.021
-0.115
-0.113
-0.094
-0.098
-0.107
-0.115
-0.12
-0.114
-0.108
-0.104
-0.1
-0.111
-0.129
-0.168
-0.187
-0.14
-0.103
-0.101
-0.092
-0.117
-0.195
-0.173
-0.135
-0.148
-0.172
-0.17
-0.194
-0.207
-0.203
-0.209
-0.22
-0.192
-0.147
-0.154
-0.19
-0.19
-0.193
-0.202
-0.205
-0.206
-0.205
-0.173
-0.118
-0.1
-0.118
-0.12
-0.121
-0.112
-0.117
-0.149
-0.175
-0.162
-0.135
-0.151
-0.176
-0.155
-0.152
-0.167
-0.197
-0.225
-0.22
-0.184
-0.154
-0.14
-0.133
-0.125
-0.129
-0.131
-0.13
-0.13
-0.13
-0.13
-0.129
-0.134
-0.14
-0.135
-0.135
-0.132
-0.131
-0.127
-0.115
-0.118
-0.086
-0.054
-0.031
0.015
0.038
0.052
0.132
0.215
0.24
0.371
0.509
0.585
0.671
0.81
0.852
0.87
0.866
0.795
0.645
0.436
0.248
0.033
-0.195
-0.31
-0.315
-0.406
-0.431
-0.34
-0.275
-0.198
-0.181
-0.21
-0.208
-0.185
-0.244
-0.248
-0.219
-0.206
-0.185
-0.162
-0.169
-0.189
-0.204
-0.225
-0.242
-0.209
-0.138
-0.124
-0.185
-0.152
-0.095
-0.093
-0.119
-0.115
-0.102
-0.102
-0.107
-0.111
-0.115
-0.117
-0.135
-0.15
-0.121
-0.06
-0.053
-0.053
-0.048
-0.044
-0.04
-0.044
-0.045
-0.047
-0.051
-0.05
-0.047
-0.038
-0.036
-0.04
-0.045
-0.069
-0.085
-0.081
-0.076
-0.09
-0.109
-0.129
-0.104
-0.066
-0.075
-0.065
-0.047
-0.049
-0.045
-0.01
0.005
0.004
0.026
0.035
-0.005
-0.007
-0.004
-0.005
-0.006
-0.01
-0.01
-0.014
-0.013
-0.01
-0.015
-0.011
-0.009
-0.012
-0.015
-0.015
-0.019
-0.021
-0.019
-0.022
-0.03
-0.027
-0.022
-0.018
-0.014
-0.01
-0.005
-0.011
-0.016
-0.015
-0.02
-0.022
-0.013
-0.059
-0.107
-0.075
-0.078
-0.079
-0.106
-0.172
-0.195
-0.112
-0.088
-0.107
-0.111
-0.115
-0.118
-0.127
-0.131
-0.13
-0.135
-0.147
-0.156
-0.165
-0.17
-0.165
-0.157
-0.148
-0.147
-0.159
-0.175
-0.191
-0.209
-0.217
-0.214
-0.215
-0.233
-0.231
-0.222
-0.219
-0.215
-0.213
-0.229
-0.231
-0.211
-0.2
-0.189
-0.171
-0.163
-0.138
-0.11
-0.175
-0.1
-0.084
-0.171
-0.15
-0.131
-0.172
-0.247
-0.217
-0.065
-0.07
-0.157
-0.201
-0.183
-0.155
-0.144
-0.12
-0.125
-0.137
-0.095
-0.053
-0.065
-0.086
-0.085
-0.09
-0.094
-0.098
-0.102
-0.106
-0.11
-0.11
-0.11
-0.11
-0.11
-0.105
-0.096
-0.094
-0.078
-0.039
0.015
0.079
0.108
0.162
0.276
0.375
0.399
0.521
0.703
0.81
0.825
0.847
0.842
0.8
0.703
0.535
0.336
0.1
-0.115
-0.295
-0.435
-0.438
-0.414
-0.408
-0.384
-0.31
-0.234
-0.263
-0.279
-0.237
-0.225
-0.209
-0.193
-0.177
-0.17
-0.175
-0.167
-0.166
-0.16
-0.157
-0.17
-0.163
-0.153
-0.164
-0.174
-0.155
-0.153
-0.16
-0.155
-0.16
-0.18
-0.151
-0.147
-0.159
-0.161
-0.165
-0.169
-0.173
-0.177
-0.153
-0.125
-0.201
-0.205
-0.162
-0.13
-0.055
0.041
-0.078
-0.106
0.002
-0.04
-0.077
-0.042
-0.031
-0.068
-0.075
-0.056
-0.037
-0.024
-0.057
-0.13
-0.113
-0.095
-0.077
-0.042
-0.02
-0.023
-0.03
-0.026
-0.019
-0.02
-0.016
-0.014
-0.015
-0.014
-0.01
-0.003
0.01
0.018
0.022
0.03
0.037
0.048
0.031
0.009
0.02
0.021
0.019
0.021
0.019
0.02
0.029
-0.009
-0.036
-0.029
-0.035
-0.036
-0.033
-0.041
-0.043
-0.055
-0.144
-0.162
-0.146
-0.15
-0.145
-0.14
-0.102
-0.023
-0.016
-0.12
-0.126
-0.117
-0.121
-0.121
-0.125
-0.125
-0.124
-0.128
-0.138
-0.145
-0.132
-0.106
-0.138
-0.183
-0.15
-0.131
-0.166
-0.19
-0.184
-0.19
-0.195
-0.194
-0.201
-0.211
-0.21
-0.218
-0.226
-0.234
-0.242
-0.245
-0.243
-0.261
-0.287
-0.295
-0.285
-0.28
-0.28
-0.264
-0.241
-0.225
-0.179
-0.101
-0.121
-0.158
-0.105
-0.202
-0.268
-0.25
-0.203
-0.16
-0.133
-0.098
-0.101
-0.145
-0.165
-0.147
-0.12
-0.122
-0.153
-0.18
-0.193
-0.167
-0.142
-0.131
-0.115
-0.118
-0.125
-0.123
-0.12
-0.125
-0.125
-0.128
-0.131
-0.13
-0.13
-0.131
-0.121
-0.112
-0.109
-0.1
-0.091
-0.088
-0.062
-0.023
0.0
0.047
0.132
0.21
0.281
0.375
0.474
0.614
0.693
0.787
0.97
0.937
0.871
0.806
0.658
0.44
0.263
0.104
-0.181
-0.416
-0.38
-0.376
-0.344
-0.277
-0.261
-0.305
-0.289
-0.258
-0.232
-0.202
-0.17
-0.152
-0.182
-0.205
-0.2
-0.205
-0.201
-0.197
-0.192
-0.182
-0.165
-0.149
-0.166
-0.173
-0.156
-0.145
-0.14
-0.143
-0.163
-0.182
-0.175
-0.174
-0.177
-0.185
-0.19
-0.185
-0.182
-0.17
-0.149
-0.15
-0.195
-0.233
-0.216
-0.177
-0.148
-0.11
-0.066
-0.093
-0.104
-0.058
-0.035
-0.058
-0.043
-0.012
0.003
-0.015
-0.083
-0.034
-0.037
-0.114
-0.085
-0.05
-0.072
-0.067
-0.038
-0.05
-0.03
-0.022
-0.028
-0.03
-0.03
-0.035
-0.033
-0.029
-0.031
-0.035
-0.034
-0.04
-0.034
-0.025
-0.03
-0.025
-0.031
-0.019
0.012
0.025
0.022
0.014
0.007
0.005
0.005
0.009
0.01
0.012
0.033
0.04
-0.047
-0.072
-0.053
-0.048
-0.04
-0.036
-0.03
-0.02
-0.015
-0.02
-0.028
-0.035
-0.046
-0.056
-0.055
-0.051
-0.049
-0.053
-0.081
-0.125
-0.126
-0.129
-0.138
-0.132
-0.135
-0.189
-0.171
-0.148
-0.162
-0.155
-0.151
-0.147
-0.143
-0.14
-0.14
-0.144
-0.149
-0.15
-0.151
-0.165
-0.188
-0.183
-0.187
-0.209
-0.215
-0.219
-0.224
-0.223
-0.194
-0.155
-0.174
-0.181
-0.17
-0.164
-0.16
-0.157
-0.145
-0.159
-0.244
-0.305
-0.146
-0.048
-0.048
-0.057
-0.065
-0.082
-0.086
-0.087
-0.09
-0.1
-0.143
-0.149
-0.132
-0.132
-0.14
-0.121
-0.102
-0.086
-0.064
-0.06
-0.113
-0.136
-0.137
-0.139
-0.13
-0.126
-0.119
-0.113
-0.109
-0.1
-0.088
-0.077
-0.062
-0.066
-0.095
-0.081
-0.066
-0.048
0.01
0.07
0.033
0.11
0.25
0.345
0.415
0.505
0.641
0.782
0.905
0.98
0.92
0.857
0.774
0.614
0.4
0.169
-0.035
-0.24
-0.379
-0.375
-0.35
-0.33
-0.308
-0.285
-0.26
-0.223
-0.198
-0.181
-0.169
-0.17
-0.17
-0.168
-0.162
-0.17
-0.185
-0.144
-0.099
-0.107
-0.15
-0.175
-0.176
-0.175
-0.174
-0.177
-0.175
-0.131
-0.132
-0.135
-0.119
-0.13
-0.135
-0.135
-0.137
-0.141
-0.145
-0.149
-0.154
-0.155
-0.164
-0.16
-0.076
-0.02
-0.037
-0.114
-0.155
-0.02
0.0
-0.027
-0.007
-0.025
-0.059
-0.005
0.025
-0.023
-0.045
-0.011
-0.016
-0.053
-0.054
-0.025
-0.049
-0.084
-0.07
-0.035
-0.025
0.006
0.039
0.056
0.069
0.07
0.016
0.003
0.028
0.032
0.01
0.017
0.024
0.026
0.033
0.045
0.049
0.054
0.054
0.049
0.045
0.048
0.058
0.058
0.048
0.045
0.047
0.032
0.055
0.041
-0.055
-0.004
0.041
0.033
0.016
0.0
-0.013
-0.019
-0.02
-0.029
-0.03
0.022
0.02
-0.017
-0.012
0.03
0.021
0.002
-0.014
-0.027
-0.035
-0.057
-0.061
-0.079
-0.111
-0.12
-0.128
-0.137
-0.141
-0.14
-0.14
-0.144
-0.145
-0.145
-0.145
-0.145
-0.144
-0.152
-0.155
-0.166
-0.18
-0.138
-0.133
-0.153
-0.162
-0.17
-0.182
-0.193
-0.194
-0.189
-0.19
-0.195
-0.224
-0.249
-0.203
-0.1
-0.082
-0.055
-0.02
0.037
0.135
0.173
0.252
0.365
0.463
0.53
0.568
0.702
0.785
0.803
0.86
0.784
0.633
0.417
0.208
0.045
-0.228
-0.374
-0.396
-0.401
-0.39
-0.344
-0.292
-0.251
-0.198
-0.145
-0.169
-0.17
-0.154
-0.148
-0.14
-0.132
-0.12
-0.112
-0.109
-0.105
-0.105
-0.105
-0.105
-0.105
-0.105
-0.104
-0.111
-0.115
-0.107
-0.105
-0.133
-0.115
-0.052
-0.038
-0.09
-0.062
-0.002
-0.066
-0.164
-0.11
-0.047
-0.048
-0.081
-0.086
-0.045
-0.004
-0.005
-0.022
-0.033
-0.045
-0.058
-0.067
-0.088
-0.089
-0.035
0.017
0.033
0.025
0.019
0.015
-0.006
-0.012
-0.008
-0.004
0.0
0.0
0.001
-0.002
-0.005
0.0
0.0
0.001
0.011
-0.005
-0.04
0.011
0.036
0.007
-0.017
-0.01
-0.01
-0.007
-0.004
-0.005
-0.005
-0.002
0.007
0.009
0.032
0.085
0.083
0.079
0.078
0.075
0.08
0.088
0.096
0.104
0.112
0.115
0.096
0.071
0.051
0.037
0.02
-0.028
-0.1
-0.115
-0.068
-0.045
-0.071
-0.062
-0.031
-0.027
-0.045
-0.046
-0.041
-0.04
-0.039
-0.035
-0.036
-0.029
-0.041
-0.063
-0.06
-0.063
-0.068
-0.072
-0.076
-0.08
-0.08
-0.079
-0.082
-0.085
-0.085
-0.092
-0.075
-0.077
-0.062
0.01
0.006
-0.005
-0.008
-0.016
-0.005
0.048
0.147
0.214
0.308
0.49
0.578
0.668
0.781
0.902
0.985
0.896
0.752
0.606
0.441
0.24
0.0
-0.217
-0.329
-0.346
-0.35
-0.362
-0.372
-0.359
-0.327
-0.295
-0.247
-0.202
-0.157
-0.126
-0.13
-0.135
-0.135
-0.137
-0.14
-0.14
-0.146
-0.131
-0.098
-0.088
-0.115
-0.122
-0.144
-0.172
-0.135
-0.05
-0.096
-0.178
-0.139
-0.056
-0.075
-0.082
-0.074
-0.066
-0.058
-0.05
-0.039
-0.05
-0.003
0.052
0.01
-0.003
0.012
-0.023
-0.058
-0.015
-0.014
-0.009
-0.025
-0.079
-0.115
-0.103
-0.07
-0.043
-0.009
0.01
-0.051
-0.037
0.034
0.049
0.005
0.02
0.025
0.019
0.02
0.015
0.013
0.02
-0.018
-0.047
0.0
0.011
0.012
0.019
0.028
0.035
0.036
0.063
0.041
-0.003
0.025
0.043
0.05
0.061
0.064
0.05
0.034
0.021
0.009
-0.003
-0.015
-0.029
-0.022
-0.012
-0.008
0.0
0.001
0.03
0.048
0.037
0.03
0.023
0.004
-0.026
-0.04
-0.03
-0.051
-0.117
-0.089
-0.012
-0.035
-0.05
-0.051
-0.081
-0.121
-0.13
-0.142
-0.111
-0.065
-0.05
-0.06
-0.063
-0.078
-0.101
-0.118
-0.13
-0.14
-0.131
-0.124
-0.143
-0.15
-0.074
-0.06
-0.085
-0.091
-0.11
-0.147
-0.1
-0.048
-0.044
-0.035
-0.023
-0.014
-0.005
0.009
0.015
-0.003
-0.03
-0.045
-0.061
-0.075
-0.032
-0.035
-0.057
-0.072
-0.105
-0.107
-0.101
-0.067
-0.06
-0.125
-0.111
-0.079
-0.113
-0.149
-0.1
-0.058
-0.029
-0.004
-0.032
-0.105
-0.075
-0.026
-0.031
-0.067
-0.08
-0.08
-0.083
-0.086
-0.085
-0.085
-0.09
-0.087
-0.086
-0.082
-0.065
-0.055
-0.017
0.081
0.141
0.115
0.183
0.256
0.317
0.398
0.485
0.55
0.716
0.858
0.887
0.86
0.776
0.702
0.568
0.373
0.185
-0.021
-0.127
-0.222
-0.31
-0.295
-0.284
-0.289
-0.272
-0.237
-0.215
-0.202
-0.197
-0.177
-0.186
-0.24
-0.202
-0.144
-0.128
-0.137
-0.14
-0.144
-0.148
-0.152
-0.157
-0.16
-0.147
-0.118
-0.147
-0.175
-0.12
-0.128
-0.149
-0.16
-0.183
-0.19
-0.113
-0.074
-0.076
-0.074
-0.075
-0.08
-0.074
-0.088
-0.123
-0.155
-0.181
-0.051
0.026
0.027
0.095
0.032
0.009
0.024
0.018
0.005
-0.018
-0.015
-0.028
-0.051
-0.035
-0.027
-0.05
-0.058
-0.051
-0.06
-0.034
-0.003
-0.01
-0.032
-0.025
-0.02
-0.021
-0.018
-0.015
-0.015
0.002
0.004
-0.001
0.0
-0.005
-0.008
0.014
0.058
0.071
0.03
0.019
0.018
-0.022
-0.056
-0.025
-0.002
0.001
0.013
-0.019
-0.13
-0.162
-0.04
0.033
0.006
-0.005
-0.044
0.025
0.047
-0.051
-0.11
-0.072
-0.014
-0.015
-0.043
-0.035
-0.03
-0.029
-0.034
-0.04
-0.03
-0.023
-0.039
-0.057
-0.068
-0.085
-0.101
-0.078
-0.049
-0.073
-0.12
-0.087
-0.056
-0.061
-0.079
-0.085
-0.072
-0.072
-0.076
-0.074
-0.075
-0.08
-0.075
-0.1
-0.115
-0.075
-0.1
-0.095
-0.07
-0.056
-0.035
-0.019
-0.002
0.01
0.035
0.11
0.233
0.386
0.475
0.494
0.54
0.646
0.743
0.696
0.572
0.5
0.337
0.125
-0.046
-0.161
-0.25
-0.296
-0.296
-0.238
-0.158
-0.12
-0.108
-0.089
-0.079
-0.106
-0.14
-0.11
-0.085
-0.073
-0.047
-0.02
-0.015
-0.012
-0.01
-0.009
-0.005
-0.001
0.003
-0.009
-0.028
-0.035
-0.043
-0.048
-0.052
-0.055
-0.055
-0.059
-0.06
-0.062
-0.066
-0.065
-0.061
-0.057
-0.053
-0.048
-0.04
-0.036
-0.029
-0.038
-0.023
0.045
0.02
-0.163
-0.14
0.031
0.0
-0.003
-0.002
-0.005
-0.015
-0.02
0.051
0.072
0.063
0.065
0.06
0.06
0.057
0.056
0.061
0.06
0.06
0.059
0.062
0.065
0.06
0.049
0.031
0.024
0.032
0.04
0.044
0.047
0.054
0.061
0.06
0.052
0.049
0.052
0.055
0.055
0.058
0.033
0.033
0.05
0.03
0.012
0.008
-0.002
0.009
0.06
0.068
0.057
0.058
0.057
0.04
0.033
0.015
0.001
0.008
0.01
-0.023
-0.034
-0.027
-0.025
-0.025
-0.024
-0.031
-0.036
-0.035
-0.04
-0.047
-0.027
-0.027
-0.038
-0.02
-0.034
-0.027
-0.069
-0.123
-0.08
-0.042
-0.05
-0.065
-0.055
-0.04
-0.052
-0.052
-0.04
-0.034
-0.025
-0.013
-0.07
-0.089
-0.038
-0.015
-0.03
-0.047
-0.049
-0.036
0.0
0.072
0.097
0.129
0.196
0.26
0.335
0.377
0.423
0.492
0.55
0.618
0.785
0.871
0.812
0.745
0.676
0.571
0.385
0.155
-0.055
-0.256
-0.329
-0.334
-0.358
-0.375
-0.338
-0.291
-0.265
-0.252
-0.235
-0.218
-0.209
-0.183
-0.159
-0.175
-0.188
-0.199
-0.212
-0.222
-0.2
-0.119
-0.106
-0.127
-0.131
-0.145
-0.16
-0.112
-0.079
-0.093
-0.095
-0.099
-0.101
-0.099
-0.111
-0.135
-0.132
-0.129
-0.13
-0.131
-0.125
-0.08
0.014
0.057
0.035
0.03
0.037
0.048
0.046
0.031
0.015
-0.01
-0.055
-0.037
-0.018
-0.09
-0.089
-0.049
-0.014
0.019
0.045
0.02
-0.017
-0.021
0.009
0.035
0.036
0.038
0.04
0.041
0.04
0.01
0.008
0.017
0.015
0.02
0.021
0.017
0.012
0.001
-0.005
0.016
0.019
0.013
0.008
0.0
-0.004
-0.012
-0.015
-0.016
-0.025
-0.029
-0.033
-0.038
-0.039
-0.035
-0.037
-0.02
0.012
0.032
0.035
0.05
-0.001
-0.036
-0.023
-0.03
-0.035
-0.035
-0.037
-0.041
-0.045
-0.055
-0.084
-0.145
-0.188
-0.165
-0.152
-0.138
-0.124
-0.101
-0.055
-0.024
-0.051
-0.077
-0.075
-0.08
-0.089
-0.091
-0.103
-0.116
-0.11
-0.112
-0.128
-0.12
-0.097
-0.1
-0.109
-0.111
-0.109
-0.112
-0.11
-0.067
-0.061
-0.074
-0.076
-0.08
-0.084
-0.088
-0.09
-0.073
-0.045
-0.044
-0.045
-0.046
-0.043
-0.045
-0.08
-0.114
-0.149
-0.171
-0.15
-0.119
-0.084
-0.061
-0.037
-0.025
-0.084
-0.061
-0.063
-0.108
-0.075
-0.044
-0.035
-0.035
-0.034
-0.03
-0.025
-0.028
-0.029
-0.041
-0.07
-0.063
-0.056
-0.053
-0.05
-0.055
-0.055
-0.058
-0.059
-0.062
-0.065
-0.027
0.053
0.096
0.106
0.135
0.146
0.244
0.345
0.408
0.51
0.614
0.589
0.685
0.829
0.73
0.649
0.621
0.523
0.302
0.095
0.046
-0.142
-0.267
-0.235
-0.245
-0.249
-0.253
-0.239
-0.208
-0.185
-0.157
-0.132
-0.121
-0.111
-0.105
-0.135
-0.066
-0.017
-0.038
-0.035
-0.039
-0.038
-0.048
-0.062
-0.06
-0.064
-0.065
-0.067
-0.07
-0.07
-0.073
-0.09
-0.137
-0.128
-0.03
-0.029
-0.04
-0.044
-0.058
-0.065
-0.075
-0.094
-0.051
0.013
0.005
0.016
0.057
0.068
0.027
0.005
0.067
0.046
0.001
0.01
0.0
-0.085
-0.099
-0.08
-0.06
-0.015
-0.031
-0.057
-0.024
0.036
0.045
0.032
0.069
0.093
0.077
0.075
0.071
0.067
0.063
0.059
0.04
-0.015
0.009
0.076
0.09
0.05
0.04
0.035
0.044
0.071
0.08
0.072
0.064
0.054
0.042
0.035
0.028
0.014
0.031
0.092
0.135
0.113
0.123
0.103
0.054
0.06
0.065
0.067
0.059
0.077
0.11
0.02
-0.044
-0.049
-0.045
-0.05
-0.05
-0.049
-0.037
-0.022
-0.02
-0.024
-0.028
-0.032
-0.036
-0.04
-0.042
-0.062
-0.052
-0.002
0.02
-0.033
-0.054
-0.048
-0.051
-0.05
-0.041
-0.045
-0.052
-0.067
-0.105
-0.114
-0.088
-0.07
-0.079
-0.095
-0.101
-0.13
-0.166
-0.136
-0.055
-0.079
-0.065
-0.021
0.008
0.04
0.067
0.105
0.16
0.245
0.34
0.378
0.413
0.456
0.476
0.515
0.686
0.743
0.658
0.543
0.38
0.058
-0.095
-0.243
-0.394
-0.335
-0.29
-0.309
-0.301
-0.247
-0.205
-0.166
-0.118
-0.079
-0.071
-0.08
-0.07
-0.052
-0.039
-0.026
-0.02
-0.051
-0.042
-0.013
0.004
0.015
0.0
-0.018
-0.017
-0.037
-0.085
-0.05
0.003
0.014
-0.004
-0.015
-0.024
-0.025
-0.044
-0.067
-0.06
-0.064
-0.066
-0.065
-0.065
-0.065
-0.071
-0.055
-0.025
-0.008
-0.01
-0.01
-0.013
-0.015
-0.015
-0.02
-0.022
-0.003
0.035
0.046
-0.005
-0.05
-0.015
0.016
0.002
0.0
0.0
0.003
0.005
0.006
0.015
0.027
0.07
0.096
0.079
0.065
0.09
0.09
0.072
0.063
0.055
0.043
0.035
0.023
0.025
0.05
0.036
0.015
0.009
0.018
0.02
-0.006
-0.004
-0.007
-0.01
0.045
0.102
0.111
0.102
0.099
0.095
0.095
0.092
0.09
0.089
0.085
0.086
0.036
-0.028
-0.034
-0.015
-0.083
-0.087
-0.065
-0.079
-0.08
-0.05
-0.045
-0.053
-0.047
-0.025
0.008
0.026
0.034
0.042
0.06
0.085
-0.008
-0.073
-0.051
-0.05
-0.05
-0.048
-0.04
-0.036
-0.04
-0.021
-0.001
0.008
0.01
0.01
0.014
0.02
0.032
0.041
0.05
0.074
0.023
0.012
0.082
0.12
0.124
0.209
0.321
0.407
0.49
0.541
0.579
0.674
0.785
0.8
0.747
0.683
0.645
0.551
0.335
0.138
-0.024
-0.177
-0.29
-0.34
-0.395
-0.374
-0.322
-0.285
-0.235
-0.185
-0.153
-0.14
-0.134
-0.13
-0.13
-0.127
-0.123
-0.118
-0.11
-0.102
-0.095
-0.1
-0.103
-0.095
-0.106
-0.084
-0.069
-0.091
-0.095
-0.046
-0.027
-0.062
-0.093
-0.09
-0.098
-0.031
0.013
-0.003
0.0
0.0
0.001
-0.004
0.007
0.045
0.041
0.013
0.009
0.039
0.065
0.06
0.066
0.018
-0.048
-0.035
-0.028
-0.038
0.013
0.058
0.005
0.013
0.034
0.046
0.058
0.07
0.075
0.075
0.075
0.076
0.08
0.08
0.079
0.082
0.084
0.08
0.084
0.086
0.082
0.072
0.06
0.056
0.046
0.035
0.028
0.02
0.02
0.017
0.015
0.015
0.015
0.023
0.028
0.033
0.042
0.05
0.053
0.065
0.052
0.027
0.03
0.026
0.028
0.029
0.024
0.025
0.026
0.02
0.01
0.004
0.0
-0.009
-0.01
-0.013
-0.004
0.025
0.018
0.01
-0.005
-0.003
0.035
0.025
0.012
0.008
-0.004
-0.025
-0.046
-0.06
-0.054
-0.044
-0.055
-0.072
-0.077
-0.088
-0.065
0.005
-0.022
-0.064
-0.084
-0.117
-0.135
-0.044
-0.015
-0.028
-0.024
-0.025
-0.025
-0.025
-0.026
-0.023
-0.01
0.0
-0.012
-0.039
-0.049
-0.035
-0.024
0.004
0.076
0.057
-0.1
-0.088
-0.06
-0.056
-0.041
-0.03
-0.028
0.022
0.014
-0.033
0.01
0.057
0.01
-0.024
0.008
0.025
0.018
0.009
0.001
0.001
0.0
-0.034
-0.041
-0.032
-0.029
-0.025
-0.024
0.007
0.066
0.077
0.025
0.046
0.069
0.101
0.178
0.265
0.306
0.353
0.404
0.463
0.555
0.665
0.75
0.822
0.863
0.82
0.731
0.722
0.634
0.396
0.185
0.084
-0.107
-0.222
-0.184
-0.195
-0.313
-0.306
-0.22
-0.189
-0.19
-0.126
-0.083
-0.068
-0.059
-0.055
-0.047
-0.042
-0.037
-0.027
-0.015
-0.012
-0.032
-0.023
-0.033
-0.105
-0.079
-0.033
-0.03
-0.047
-0.045
-0.041
-0.039
-0.043
-0.052
-0.055
-0.057
-0.078
-0.097
-0.092
-0.05
0.036
0.05
0.024
0.022
0.035
0.043
0.055
0.076
0.083
0.06
0.041
0.049
0.069
0.083
0.08
0.047
0.034
0.032
0.006
-0.02
0.004
-0.02
-0.031
0.002
0.02
0.033
0.036
0.035
0.035
0.035
0.033
0.05
0.063
0.059
0.06
0.06
0.06
0.06
0.06
0.06
0.065
0.064
0.071
0.089
0.1
0.096
0.093
0.098
0.107
0.115
0.123
0.128
0.134
0.15
0.16
0.123
0.077
0.065
0.078
0.085
0.085
0.084
0.087
0.09
0.085
0.08
0.082
0.073
0.066
0.055
-0.027
-0.028
0.024
0.039
0.02
0.003
-0.009
-0.023
-0.038
-0.05
-0.067
-0.073
-0.079
-0.076
-0.04
-0.002
0.018
0.002
-0.014
0.005
0.007
0.002
-0.001
0.001
-0.01
-0.067
-0.063
-0.051
-0.077
-0.09
-0.065
-0.024
-0.023
-0.049
-0.05
-0.062
-0.102
-0.093
-0.049
-0.05
-0.039
-0.029
-0.02
-0.007
0.005
0.022
0.028
0.037
0.053
0.055
0.049
0.022
-0.024
-0.026
0.0
-0.093
-0.103
-0.07
-0.07
-0.065
-0.064
-0.037
-0.007
0.009
0.025
0.042
0.046
0.045
0.045
0.045
0.045
0.039
0.015
-0.025
-0.045
-0.011
0.022
0.035
0.041
0.045
0.049
0.053
0.056
0.071
0.105
0.131
0.141
0.153
0.194
0.265
0.352
0.481
0.564
0.649
0.785
0.762
0.846
0.87
0.735
0.655
0.667
0.536
0.321
0.145
-0.01
-0.162
-0.24
-0.332
-0.438
-0.435
-0.333
-0.168
-0.065
-0.056
-0.06
-0.057
-0.049
-0.04
-0.034
-0.03
-0.022
-0.017
-0.011
-0.004
-0.005
-0.001
0.003
0.007
0.002
-0.015
-0.024
-0.028
-0.033
-0.053
-0.075
-0.044
-0.054
-0.076
-0.075
-0.08
-0.087
-0.067
-0.051
-0.056
-0.055
-0.047
-0.039
-0.031
-0.023
-0.015
-0.003
0.011
0.033
0.062
0.085
0.092
0.107
0.069
-0.03
-0.095
-0.07
-0.045
-0.018
0.016
0.045
0.101
0.039
-0.017
0.006
0.02
0.039
0.065
0.094
0.112
0.115
0.121
0.106
0.09
0.09
0.09
0.086
0.082
0.078
0.074
0.075
0.088
0.088
0.084
0.085
0.08
0.076
0.072
0.07
0.07
0.07
0.07
0.07
0.071
0.076
0.08
0.08
0.083
0.086
0.093
0.095
0.039
-0.034
-0.041
0.005
0.035
0.074
0.115
0.089
-0.004
-0.065
-0.026
0.029
0.035
0.001
-0.02
-0.009
0.005
0.016
0.028
0.04
0.036
0.001
-0.001
0.03
0.025
0.0
-0.013
-0.015
-0.015
-0.015
-0.015
-0.016
-0.012
-0.02
-0.055
-0.087
-0.088
-0.102
-0.111
-0.075
-0.073
-0.073
-0.068
-0.072
-0.085
-0.092
-0.041
-0.007
0.001
0.05
0.095
0.133
0.166
0.208
0.27
0.341
0.411
0.433
0.507
0.71
0.822
0.856
0.854
0.736
0.495
0.351
0.17
-0.041
-0.161
-0.185
-0.249
-0.255
-0.217
-0.215
-0.235
-0.181
-0.131
-0.099
-0.067
-0.03
0.008
0.024
0.011
-0.009
-0.015
-0.015
-0.014
-0.017
-0.021
-0.02
-0.019
-0.025
-0.019
-0.002
0.005
0.011
0.03
0.014
-0.009
0.03
0.06
0.041
0.048
0.077
0.065
0.065
0.059
0.054
0.046
0.04
0.053
-0.051
-0.097
-0.022
0.02
0.038
0.079
0.095
0.077
0.065
0.035
0.031
0.035
0.029
0.03
0.047
0.077
0.033
-0.022
0.03
0.074
0.086
0.084
0.086
0.09
0.095
0.093
0.086
0.078
0.075
0.084
0.078
0.064
0.059
0.06
0.07
0.092
0.1
0.094
0.095
0.096
0.09
0.096
0.096
0.06
0.036
0.043
0.053
0.057
0.065
0.061
0.096
0.118
0.109
0.115
0.117
0.136
0.129
0.082
0.05
0.058
0.019
-0.01
0.003
0.005
0.008
0.017
-0.012
-0.047
-0.025
-0.006
-0.01
-0.018
-0.02
-0.025
-0.035
-0.027
-0.016
-0.006
0.015
0.027
0.043
0.07
0.085
0.06
0.022
0.005
-0.008
-0.012
0.015
0.037
0.045
0.058
0.055
0.015
-0.015
-0.036
-0.068
-0.075
-0.025
0.018
0.04
0.08
0.138
0.185
0.249
0.342
0.4
0.449
0.575
0.716
0.775
0.864
0.934
0.825
0.68
0.576
0.427
0.209
-0.005
-0.185
-0.258
-0.3
-0.321
-0.26
-0.208
-0.228
-0.323
-0.292
-0.075
-0.059
-0.078
-0.076
-0.081
-0.08
-0.084
-0.085
-0.085
-0.085
-0.085
-0.085
-0.085
-0.085
-0.085
-0.085
-0.085
-0.085
-0.085
-0.085
-0.085
-0.085
-0.085
-0.085
-0.085
-0.085
-0.085
-0.085
-0.085
-0.085
-0.085
-0.085
-0.085
-0.085
-0.085
-0.085
-0.085
-0.085
-0.085
-0.085
-0.085
-0.085
-0.085
-0.085
-0.085
-0.085
-0.085
-0.085
-0.085
-0.085
-0.085
-0.085
-0.085
-0.085
-0.085
-0.085
-0.085
-0.085
-0.085
-0.085
