voltage_mV
-0.055
-0.055
-0.055
-0.055
-0.055
-0.055
-0.052
-0.043
-0.039
-0.04
-0.04
-0.045
-0.042
-0.041
-0.046
-0.045
-0.045
-0.044
-0.047
-0.05
-0.045
-0.045
-0.046
-0.043
-0.04
-0.04
-0.04
-0.04
-0.04
-0.04
-0.04
-0.036
-0.035
-0.035
-0.035
-0.035
-0.035
-0.036
-0.033
-0.03
-0.03
-0.026
-0.024
-0.026
-0.024
-0.02
-0.024
-0.022
-0.02
-0.019
-0.015
-0.015
-0.016
-0.013
-0.01
-0.01
-0.011
-0.007
-0.005
-0.005
0.0
0.004
0.005
0.005
0.005
0.005
0.009
0.013
0.017
0.021
0.025
0.029
0.033
0.037
0.041
0.045
0.046
0.042
0.039
0.042
0.055
0.073
0.075
0.081
0.09
0.09
0.111
0.113
0.112
0.122
0.125
0.132
0.144
0.156
0.168
0.175
0.179
0.184
0.184
0.187
0.195
0.191
0.19
0.189
0.192
0.2
0.192
0.187
0.181
0.174
0.17
0.166
0.162
0.158
0.155
0.15
0.137
0.138
0.138
0.128
0.12
0.112
0.101
0.089
0.077
0.065
0.053
0.044
0.034
0.023
0.02
0.017
0.009
0.003
-0.002
-0.01
-0.014
-0.016
-0.011
-0.013
-0.035
-0.041
-0.036
-0.039
-0.045
-0.04
-0.032
-0.025
-0.03
-0.043
-0.05
-0.05
-0.05
-0.05
-0.05
-0.05
-0.05
-0.051
-0.047
-0.047
-0.06
-0.057
-0.054
-0.055
-0.055
-0.055
-0.055
-0.052
-0.049
-0.05
-0.05
-0.05
-0.05
-0.05
-0.05
-0.05
-0.05
-0.05
-0.05
-0.05
-0.05
-0.046
-0.045
-0.045
-0.045
-0.045
-0.045
-0.044
-0.049
-0.055
-0.05
-0.05
-0.05
-0.05
-0.05
-0.05
-0.046
-0.045
-0.045
-0.045
-0.045
-0.045
-0.046
-0.043
-0.04
-0.04
-0.04
-0.04
-0.04
-0.039
-0.035
-0.035
-0.035
-0.035
-0.035
-0.035
-0.033
-0.048
-0.055
-0.049
-0.05
-0.05
-0.05
-0.05
-0.049
-0.045
-0.045
-0.045
-0.045
-0.046
-0.05
-0.051
-0.047
-0.045
-0.045
-0.045
-0.049
-0.051
-0.048
-0.045
-0.045
-0.045
-0.044
-0.047
-0.05
-0.05
-0.058
-0.064
-0.066
-0.064
-0.065
-0.078
-0.081
-0.08
-0.08
-0.08
-0.08
-0.08
-0.08
-0.08
-0.08
-0.08
-0.08
-0.08
-0.08
-0.08
-0.072
-0.066
-0.065
-0.065
-0.065
-0.065
-0.065
-0.065
-0.065
-0.065
-0.065
-0.065
-0.065
-0.064
-0.06
-0.06
-0.06
-0.06
-0.06
-0.06
-0.056
-0.055
-0.055
-0.055
-0.055
-0.055
-0.056
-0.053
-0.05
-0.055
-0.055
-0.055
-0.055
-0.054
-0.05
-0.05
-0.05
-0.05
-0.05
-0.05
-0.05
-0.053
-0.056
-0.055
-0.055
-0.055
-0.055
-0.055
-0.055
-0.055
-0.055
-0.055
-0.055
-0.055
-0.055
-0.055
-0.058
-0.061
-0.06
-0.06
-0.06
-0.06
-0.06
-0.06
-0.06
-0.064
-0.065
-0.065
-0.065
-0.065
-0.061
-0.06
-0.06
-0.061
-0.065
-0.066
-0.062
-0.059
-0.06
-0.06
-0.06
-0.061
-0.057
-0.057
-0.075
-0.089
-0.088
-0.084
-0.085
-0.085
-0.081
-0.079
-0.081
-0.079
-0.075
-0.075
-0.075
-0.075
-0.075
-0.075
-0.075
-0.072
-0.069
-0.07
-0.07
-0.066
-0.064
-0.066
-0.064
-0.06
-0.059
-0.067
-0.07
-0.071
-0.08
-0.084
-0.091
-0.096
-0.094
-0.09
-0.09
-0.087
-0.084
-0.085
-0.085
-0.081
-0.074
-0.066
-0.058
-0.05
-0.042
-0.033
-0.031
-0.036
-0.035
-0.034
-0.04
-0.035
-0.024
-0.025
-0.021
-0.017
-0.013
-0.009
-0.005
-0.005
-0.005
-0.005
-0.005
-0.005
0.0
-0.008
-0.02
-0.026
-0.03
-0.038
-0.043
-0.049
-0.057
-0.06
-0.056
-0.053
-0.06
-0.064
-0.06
-0.072
-0.077
-0.074
-0.077
-0.085
-0.081
-0.079
-0.08
-0.08
-0.08
-0.08
-0.08
-0.08
-0.08
-0.08
-0.08
-0.08
-0.08
-0.079
-0.075
-0.075
-0.075
-0.075
-0.075
-0.075
-0.075
-0.075
-0.075
-0.075
-0.075
-0.075
-0.075
-0.074
-0.077
-0.09
-0.1
-0.096
-0.1
-0.12
-0.135
-0.124
-0.081
-0.065
-0.065
-0.01
0.075
0.145
0.206
0.254
0.265
0.244
0.238
0.191
0.142
0.16
0.115
0.028
-0.05
-0.11
-0.165
-0.203
-0.262
-0.288
-0.271
-0.255
-0.215
-0.185
-0.164
-0.138
-0.11
-0.094
-0.076
-0.069
-0.07
-0.065
-0.061
-0.057
-0.053
-0.049
-0.045
-0.045
-0.046
-0.043
-0.04
-0.04
-0.04
-0.04
-0.04
-0.039
-0.035
-0.035
-0.036
-0.033
-0.031
-0.035
-0.031
-0.029
-0.031
-0.029
-0.025
-0.029
-0.031
-0.028
-0.025
-0.025
-0.026
-0.021
-0.021
-0.026
-0.025
-0.021
-0.019
-0.021
-0.019
-0.015
-0.014
-0.019
-0.019
-0.014
-0.015
-0.016
-0.012
-0.009
-0.01
-0.01
-0.01
-0.01
-0.01
-0.01
-0.01
-0.006
-0.002
0.002
0.006
0.01
0.01
0.01
0.01
0.019
0.04
0.041
0.036
0.035
0.034
0.035
0.048
0.048
0.045
0.052
0.06
0.06
0.062
0.07
0.074
0.07
0.081
0.098
0.11
0.116
0.12
0.12
0.124
0.137
0.146
0.145
0.152
0.162
0.167
0.171
0.17
0.165
0.171
0.176
0.174
0.175
0.183
0.189
0.19
0.19
0.19
0.186
0.184
0.17
0.153
0.155
0.147
0.146
0.14
0.128
0.125
0.117
0.112
0.106
0.099
0.095
0.083
0.074
0.066
0.059
0.055
0.047
0.039
0.031
0.023
0.015
0.007
0.002
-0.002
-0.006
-0.01
-0.014
-0.015
-0.017
-0.021
-0.02
-0.019
-0.025
-0.035
-0.041
-0.04
-0.04
-0.037
-0.034
-0.035
-0.035
-0.035
-0.034
-0.039
-0.045
-0.04
-0.04
-0.041
-0.038
-0.034
-0.03
-0.03
-0.03
-0.028
-0.024
-0.02
-0.02
-0.02
-0.019
-0.021
-0.025
-0.021
-0.019
-0.022
-0.026
-0.025
-0.021
-0.019
-0.022
-0.025
-0.025
-0.025
-0.025
-0.027
-0.03
-0.03
-0.03
-0.033
-0.035
-0.035
-0.035
-0.035
-0.038
-0.041
-0.04
-0.04
-0.04
-0.04
-0.04
-0.04
-0.04
-0.04
-0.04
-0.04
-0.04
-0.04
-0.04
-0.04
-0.04
-0.04
-0.04
-0.04
-0.04
-0.04
-0.04
-0.04
-0.04
-0.037
-0.033
-0.038
-0.05
-0.05
-0.055
-0.064
-0.064
-0.06
-0.06
-0.06
-0.06
-0.06
-0.06
-0.06
-0.06
-0.06
-0.06
-0.06
-0.06
-0.06
-0.06
-0.06
-0.06
-0.06
-0.06
-0.06
-0.06
-0.06
-0.06
-0.06
-0.06
-0.06
-0.06
-0.056
-0.051
-0.05
-0.05
-0.05
-0.05
-0.05
-0.05
-0.049
-0.045
-0.045
-0.045
-0.045
-0.045
-0.045
-0.041
-0.04
-0.038
-0.035
-0.035
-0.035
-0.035
-0.035
-0.035
-0.035
-0.035
-0.034
-0.037
-0.04
-0.035
-0.034
-0.041
-0.046
-0.045
-0.045
-0.045
-0.046
-0.043
-0.04
-0.04
-0.04
-0.04
-0.04
-0.04
-0.04
-0.04
-0.043
-0.046
-0.045
-0.045
-0.049
-0.051
-0.049
-0.051
-0.055
-0.051
-0.05
-0.048
-0.054
-0.075
-0.072
-0.069
-0.071
-0.069
-0.065
-0.065
-0.066
-0.063
-0.06
-0.06
-0.056
-0.055
-0.054
-0.048
-0.045
-0.057
-0.062
-0.058
-0.063
-0.075
-0.067
-0.064
-0.064
-0.059
-0.055
-0.055
-0.052
-0.05
-0.048
-0.04
-0.039
-0.041
-0.037
-0.028
-0.02
-0.011
-0.008
0.001
0.01
0.005
0.005
0.005
0.005
0.005
0.005
0.006
0.001
0.002
0.005
0.005
0.01
0.005
-0.003
-0.006
-0.01
-0.014
-0.018
-0.021
-0.029
-0.045
-0.046
-0.044
-0.048
-0.057
-0.065
-0.07
-0.067
-0.064
-0.065
-0.065
-0.061
-0.059
-0.063
-0.064
-0.06
-0.064
-0.067
-0.059
-0.05
-0.055
-0.055
-0.055
-0.055
-0.055
-0.055
-0.055
-0.058
-0.061
-0.06
-0.06
-0.065
-0.062
-0.059
-0.061
-0.065
-0.065
-0.064
-0.067
-0.071
-0.07
-0.068
-0.087
-0.109
-0.115
-0.11
-0.102
-0.13
-0.145
-0.124
-0.1
-0.066
-0.021
0.018
0.074
0.17
0.246
0.289
0.305
0.295
0.28
0.293
0.253
0.21
0.178
0.1
0.002
-0.074
-0.121
-0.169
-0.225
-0.24
-0.239
-0.21
-0.175
-0.17
-0.143
-0.115
-0.097
-0.081
-0.065
-0.06
-0.061
-0.058
-0.055
-0.055
-0.051
-0.047
-0.043
-0.04
-0.04
-0.036
-0.034
-0.037
-0.032
-0.02
-0.024
-0.023
-0.019
-0.021
-0.025
-0.021
-0.02
-0.018
-0.015
-0.02
-0.021
-0.017
-0.014
-0.016
-0.02
-0.016
-0.014
-0.018
-0.02
-0.015
-0.015
-0.015
-0.015
-0.015
-0.015
-0.016
-0.011
-0.011
-0.016
-0.015
-0.011
-0.009
-0.011
-0.009
-0.005
-0.005
-0.006
-0.003
0.0
0.0
0.0
-0.001
0.002
0.005
0.005
0.005
0.005
0.007
0.011
0.015
0.019
0.02
0.02
0.019
0.02
0.04
0.053
0.057
0.06
0.06
0.06
0.059
0.064
0.071
0.07
0.076
0.094
0.1
0.103
0.12
0.111
0.118
0.127
0.125
0.13
0.146
0.159
0.171
0.182
0.185
0.182
0.171
0.177
0.191
0.185
0.187
0.204
0.21
0.205
0.205
0.192
0.192
0.193
0.19
0.195
0.191
0.193
0.193
0.191
0.195
0.184
0.169
0.163
0.158
0.145
0.137
0.13
0.119
0.107
0.095
0.087
0.076
0.064
0.052
0.045
0.041
0.035
0.024
0.013
0.01
0.007
-0.002
-0.006
-0.005
-0.01
-0.019
-0.02
-0.022
-0.025
-0.02
-0.023
-0.033
-0.031
-0.026
-0.04
-0.041
-0.037
-0.034
-0.035
-0.035
-0.031
-0.03
-0.027
-0.026
-0.035
-0.032
-0.026
-0.025
-0.025
-0.025
-0.021
-0.017
-0.014
-0.016
-0.02
-0.02
-0.02
-0.02
-0.019
-0.015
-0.015
-0.015
-0.017
-0.021
-0.02
-0.016
-0.015
-0.015
-0.015
-0.015
-0.015
-0.017
-0.025
-0.03
-0.025
-0.025
-0.025
-0.025
-0.025
-0.025
-0.025
-0.025
-0.025
-0.025
-0.025
-0.025
-0.025
-0.025
-0.025
-0.025
-0.025
-0.025
-0.025
-0.025
-0.025
-0.025
-0.025
-0.025
-0.025
-0.025
-0.025
-0.022
-0.019
-0.02
-0.02
-0.02
-0.02
-0.02
-0.021
-0.025
-0.025
-0.025
-0.025
-0.025
-0.025
-0.025
-0.025
-0.025
-0.025
-0.025
-0.025
-0.024
-0.027
-0.03
-0.03
-0.03
-0.03
-0.03
-0.03
-0.03
-0.039
-0.038
-0.034
-0.035
-0.035
-0.035
-0.038
-0.04
-0.04
-0.04
-0.036
-0.035
-0.035
-0.035
-0.035
-0.039
-0.04
-0.04
-0.039
-0.035
-0.035
-0.035
-0.035
-0.036
-0.04
-0.04
-0.04
-0.039
-0.042
-0.055
-0.056
-0.055
-0.055
-0.056
-0.06
-0.06
-0.06
-0.06
-0.06
-0.06
-0.06
-0.06
-0.06
-0.06
-0.06
-0.06
-0.06
-0.06
-0.06
-0.06
-0.06
-0.06
-0.061
-0.067
-0.075
-0.071
-0.07
-0.068
-0.065
-0.065
-0.061
-0.056
-0.055
-0.054
-0.05
-0.05
-0.047
-0.045
-0.044
-0.04
-0.04
-0.041
-0.038
-0.035
-0.04
-0.041
-0.037
-0.033
-0.03
-0.03
-0.034
-0.041
-0.049
-0.049
-0.04
-0.036
-0.031
-0.032
-0.035
-0.035
-0.039
-0.043
-0.048
-0.05
-0.045
-0.037
-0.029
-0.021
-0.013
-0.005
0.007
0.015
0.013
0.01
0.01
0.01
0.011
0.008
0.005
0.005
0.0
0.003
0.003
0.001
0.005
-0.003
-0.005
-0.009
-0.016
-0.015
-0.023
-0.025
-0.026
-0.031
-0.035
-0.04
-0.039
-0.046
-0.055
-0.05
-0.058
-0.059
-0.052
-0.059
-0.075
-0.067
-0.064
-0.065
-0.065
-0.065
-0.065
-0.066
-0.063
-0.06
-0.06
-0.06
-0.06
-0.061
-0.058
-0.05
-0.05
-0.05
-0.05
-0.05
-0.05
-0.05
-0.053
-0.055
-0.056
-0.06
-0.061
-0.058
-0.066
-0.076
-0.07
-0.068
-0.082
-0.092
-0.089
-0.095
-0.12
-0.126
-0.11
-0.081
-0.045
-0.014
0.03
0.095
0.185
0.28
0.325
0.34
0.335
0.322
0.315
0.306
0.265
0.203
0.13
0.035
-0.066
-0.117
-0.146
-0.185
-0.22
-0.229
-0.197
-0.174
-0.165
-0.125
-0.086
-0.075
-0.072
-0.063
-0.055
-0.047
-0.042
-0.038
-0.035
-0.035
-0.035
-0.032
-0.029
-0.03
-0.03
-0.026
-0.024
-0.026
-0.024
-0.02
-0.024
-0.026
-0.022
-0.02
-0.025
-0.025
-0.025
-0.025
-0.025
-0.025
-0.025
-0.025
-0.025
-0.025
-0.025
-0.025
-0.022
-0.019
-0.02
-0.02
-0.02
-0.017
-0.014
-0.015
-0.015
-0.015
-0.015
-0.015
-0.014
-0.01
-0.01
-0.007
-0.005
-0.004
0.0
0.0
0.003
0.005
0.006
0.01
0.01
0.013
0.015
0.015
0.02
0.024
0.025
0.026
0.031
0.035
0.036
0.033
0.041
0.05
0.045
0.045
0.046
0.044
0.047
0.06
0.064
0.068
0.071
0.077
0.09
0.099
0.1
0.102
0.114
0.125
0.124
0.135
0.154
0.159
0.15
0.161
0.171
0.166
0.168
0.185
0.185
0.193
0.205
0.211
0.215
0.217
0.205
0.2
0.206
0.205
0.192
0.189
0.191
0.189
0.185
0.187
0.172
0.166
0.169
0.16
0.157
0.146
0.137
0.134
0.125
0.117
0.109
0.101
0.092
0.08
0.072
0.064
0.055
0.049
0.045
0.033
0.023
0.018
0.014
0.01
0.011
0.004
0.0
-0.001
-0.01
-0.014
-0.021
-0.028
-0.03
-0.03
-0.034
-0.035
-0.035
-0.034
-0.03
-0.03
-0.031
-0.027
-0.026
-0.035
-0.04
-0.037
-0.034
-0.035
-0.035
-0.031
-0.03
-0.03
-0.03
-0.03
-0.034
-0.035
-0.035
-0.035
-0.035
-0.035
-0.038
-0.041
-0.04
-0.04
-0.04
-0.04
-0.04
-0.041
-0.045
-0.045
-0.045
-0.043
-0.039
-0.04
-0.045
-0.042
-0.039
-0.04
-0.04
-0.04
-0.037
-0.034
-0.035
-0.035
-0.035
-0.032
-0.029
-0.03
-0.03
-0.026
-0.024
-0.026
-0.023
-0.015
-0.015
-0.015
-0.015
-0.015
-0.015
-0.01
-0.013
-0.016
-0.015
-0.015
-0.013
-0.027
-0.039
-0.041
-0.045
-0.045
-0.045
-0.045
-0.045
-0.045
-0.049
-0.05
-0.05
-0.05
-0.05
-0.05
-0.051
-0.048
-0.045
-0.045
-0.045
-0.046
-0.041
-0.043
-0.06
-0.057
-0.051
-0.05
-0.05
-0.05
-0.05
-0.05
-0.05
-0.049
-0.045
-0.041
-0.04
-0.04
-0.04
-0.04
-0.04
-0.04
-0.038
-0.034
-0.035
-0.039
-0.04
-0.04
-0.04
-0.04
-0.04
-0.04
-0.041
-0.047
-0.055
-0.055
-0.055
-0.055
-0.055
-0.055
-0.055
-0.057
-0.049
-0.048
-0.07
-0.067
-0.064
-0.066
-0.064
-0.06
-0.06
-0.059
-0.062
-0.065
-0.06
-0.059
-0.064
-0.064
-0.059
-0.06
-0.064
-0.066
-0.063
-0.06
-0.065
-0.065
-0.065
-0.063
-0.059
-0.055
-0.051
-0.05
-0.049
-0.044
-0.04
-0.04
-0.038
-0.048
-0.061
-0.055
-0.055
-0.052
-0.05
-0.049
-0.045
-0.045
-0.046
-0.041
-0.034
-0.035
-0.031
-0.029
-0.031
-0.029
-0.025
-0.025
-0.022
-0.018
-0.014
-0.01
-0.01
-0.007
-0.003
0.001
0.005
0.001
0.0
-0.002
-0.005
-0.005
-0.009
-0.009
-0.014
-0.021
-0.02
-0.024
-0.028
-0.032
-0.035
-0.035
-0.039
-0.041
-0.039
-0.042
-0.055
-0.064
-0.068
-0.071
-0.069
-0.065
-0.065
-0.065
-0.065
-0.064
-0.06
-0.06
-0.06
-0.06
-0.06
-0.06
-0.056
-0.055
-0.055
-0.055
-0.055
-0.049
-0.061
-0.074
-0.075
-0.075
-0.075
-0.072
-0.069
-0.07
-0.07
-0.07
-0.07
-0.07
-0.07
-0.07
-0.07
-0.07
-0.07
-0.07
-0.07
-0.074
-0.076
-0.105
-0.13
-0.1
-0.067
-0.036
0.012
0.077
0.15
0.231
0.294
0.312
0.303
0.3
0.289
0.269
0.238
0.191
0.12
0.029
-0.063
-0.127
-0.163
-0.2
-0.249
-0.249
-0.221
-0.201
-0.185
-0.158
-0.128
-0.105
-0.084
-0.06
-0.055
-0.052
-0.048
-0.044
-0.04
-0.036
-0.032
-0.03
-0.03
-0.03
-0.035
-0.032
-0.031
-0.036
-0.035
-0.035
-0.034
-0.037
-0.04
-0.035
-0.035
-0.036
-0.033
-0.03
-0.035
-0.036
-0.032
-0.029
-0.03
-0.03
-0.025
-0.028
-0.029
-0.025
-0.025
-0.021
-0.02
-0.02
-0.02
-0.02
-0.016
-0.015
-0.013
-0.01
-0.01
-0.006
-0.005
-0.003
0.0
0.0
0.004
0.006
0.004
0.006
0.01
0.01
0.009
0.012
0.015
0.015
0.015
0.018
0.021
0.019
0.02
0.036
0.045
0.044
0.047
0.055
0.05
0.059
0.067
0.065
0.065
0.063
0.079
0.083
0.083
0.1
0.092
0.094
0.106
0.118
0.13
0.134
0.14
0.135
0.132
0.145
0.148
0.165
0.18
0.179
0.175
0.179
0.182
0.192
0.209
0.215
0.202
0.206
0.208
0.199
0.2
0.196
0.195
0.195
0.195
0.195
0.191
0.186
0.187
0.19
0.185
0.185
0.18
0.171
0.162
0.15
0.142
0.131
0.119
0.106
0.09
0.077
0.069
0.061
0.054
0.05
0.043
0.03
0.022
0.019
0.015
0.011
0.008
0.001
-0.007
-0.01
-0.013
-0.022
-0.026
-0.025
-0.03
-0.039
-0.04
-0.042
-0.045
-0.04
-0.036
-0.032
-0.028
-0.034
-0.05
-0.047
-0.045
-0.043
-0.04
-0.04
-0.036
-0.031
-0.029
-0.03
-0.03
-0.025
-0.028
-0.031
-0.03
-0.03
-0.03
-0.027
-0.025
-0.025
-0.025
-0.03
-0.027
-0.024
-0.025
-0.025
-0.025
-0.026
-0.023
-0.02
-0.025
-0.025
-0.025
-0.025
-0.025
-0.025
-0.025
-0.025
-0.025
-0.026
-0.03
-0.031
-0.027
-0.025
-0.025
-0.025
-0.025
-0.025
-0.025
-0.025
-0.025
-0.025
-0.022
-0.019
-0.02
-0.02
-0.019
-0.026
-0.031
-0.03
-0.03
-0.03
-0.027
-0.024
-0.025
-0.025
-0.025
-0.026
-0.023
-0.02
-0.02
-0.02
-0.02
-0.018
-0.014
-0.015
-0.019
-0.02
-0.022
-0.025
-0.025
-0.034
-0.033
-0.029
-0.03
-0.03
-0.03
-0.03
-0.03
-0.03
-0.03
-0.031
-0.023
-0.021
-0.026
-0.025
-0.025
-0.025
-0.025
-0.025
-0.025
-0.025
-0.025
-0.024
-0.028
-0.04
-0.036
-0.034
-0.035
-0.035
-0.035
-0.035
-0.032
-0.029
-0.03
-0.03
-0.03
-0.03
-0.031
-0.029
-0.025
-0.029
-0.031
-0.029
-0.031
-0.035
-0.031
-0.029
-0.032
-0.035
-0.035
-0.034
-0.039
-0.039
-0.034
-0.035
-0.035
-0.036
-0.033
-0.031
-0.035
-0.032
-0.025
-0.029
-0.036
-0.035
-0.043
-0.045
-0.047
-0.05
-0.045
-0.041
-0.037
-0.033
-0.029
-0.025
-0.021
-0.017
-0.013
-0.009
-0.005
-0.001
0.004
0.021
0.036
0.03
0.029
0.031
0.028
0.026
0.03
0.027
0.021
0.022
0.025
0.02
0.02
0.018
0.013
0.009
0.005
-0.003
-0.009
-0.01
-0.011
-0.015
-0.02
-0.019
-0.025
-0.037
-0.04
-0.035
-0.038
-0.041
-0.04
-0.04
-0.039
-0.044
-0.042
-0.042
-0.055
-0.052
-0.049
-0.051
-0.049
-0.045
-0.045
-0.044
-0.047
-0.05
-0.05
-0.059
-0.058
-0.054
-0.055
-0.055
-0.055
-0.055
-0.055
-0.055
-0.055
-0.051
-0.05
-0.05
-0.05
-0.05
-0.05
-0.051
-0.047
-0.056
-0.08
-0.071
-0.081
-0.107
-0.114
-0.095
-0.078
-0.07
-0.04
0.022
0.1
0.189
0.26
0.288
0.282
0.27
0.264
0.203
0.187
0.191
0.11
0.055
-0.022
-0.099
-0.144
-0.18
-0.225
-0.256
-0.238
-0.197
-0.18
-0.161
-0.137
-0.114
-0.087
-0.06
-0.055
-0.053
-0.047
-0.037
-0.03
-0.034
-0.035
-0.037
-0.04
-0.04
-0.04
-0.038
-0.032
-0.03
-0.03
-0.025
-0.027
-0.031
-0.029
-0.025
-0.025
-0.022
-0.019
-0.021
-0.025
-0.021
-0.02
-0.018
-0.014
-0.015
-0.02
-0.017
-0.014
-0.015
-0.015
-0.011
-0.01
-0.008
-0.005
-0.005
-0.001
0.001
-0.001
0.001
0.005
0.005
0.008
0.01
0.011
0.015
0.015
0.014
0.017
0.02
0.02
0.024
0.024
0.029
0.036
0.035
0.036
0.031
0.033
0.033
0.025
0.041
0.047
0.045
0.044
0.04
0.052
0.059
0.06
0.06
0.06
0.066
0.085
0.087
0.081
0.1
0.114
0.111
0.115
0.126
0.125
0.132
0.141
0.149
0.157
0.165
0.174
0.174
0.182
0.197
0.195
0.194
0.201
0.206
0.213
0.225
0.217
0.217
0.221
0.219
0.215
0.215
0.212
0.209
0.21
0.21
0.206
0.202
0.199
0.201
0.2
0.188
0.182
0.176
0.169
0.165
0.157
0.149
0.141
0.132
0.12
0.107
0.103
0.093
0.076
0.065
0.061
0.054
0.047
0.044
0.04
0.036
0.032
0.027
0.025
0.025
0.017
0.011
0.008
0.004
0.0
-0.005
-0.004
-0.01
-0.014
-0.005
-0.004
-0.006
-0.004
-0.008
-0.02
-0.016
-0.014
-0.015
-0.015
-0.015
-0.015
-0.015
-0.015
-0.014
-0.01
-0.01
-0.01
-0.01
-0.01
-0.01
-0.01
-0.011
-0.008
-0.005
-0.005
-0.005
-0.008
-0.011
-0.01
-0.01
-0.01
-0.011
-0.008
-0.005
-0.005
-0.005
-0.005
-0.005
-0.005
-0.005
-0.009
-0.01
-0.01
-0.01
-0.01
-0.01
-0.007
-0.004
-0.005
-0.005
-0.005
-0.005
-0.005
-0.005
-0.005
-0.005
-0.005
-0.005
-0.005
-0.005
-0.004
-0.011
-0.018
-0.02
-0.02
-0.02
-0.02
-0.02
-0.02
-0.02
-0.02
-0.02
-0.02
-0.02
-0.02
-0.02
-0.02
-0.02
-0.02
-0.02
-0.02
-0.02
-0.02
-0.02
-0.02
-0.02
-0.02
-0.02
-0.02
-0.02
-0.02
-0.02
-0.02
-0.02
-0.02
-0.02
-0.02
-0.02
-0.02
-0.02
-0.02
-0.02
-0.02
-0.02
-0.02
-0.02
-0.021
-0.018
-0.015
-0.02
-0.028
-0.037
-0.039
-0.034
-0.035
-0.035
-0.035
-0.035
-0.035
-0.035
-0.035
-0.035
-0.035
-0.035
-0.035
-0.035
-0.032
-0.029
-0.03
-0.03
-0.03
-0.03
-0.03
-0.03
-0.03
-0.03
-0.033
-0.036
-0.035
-0.035
-0.035
-0.035
-0.036
-0.034
-0.03
-0.034
-0.036
-0.033
-0.029
-0.03
-0.035
-0.032
-0.029
-0.031
-0.035
-0.031
-0.029
-0.03
-0.03
-0.03
-0.03
-0.031
-0.028
-0.025
-0.03
-0.038
-0.047
-0.049
-0.044
-0.045
-0.045
-0.042
-0.037
-0.035
-0.035
-0.031
-0.03
-0.028
-0.025
-0.025
-0.013
-0.001
0.012
0.021
0.02
0.02
0.017
0.014
0.016
0.02
0.016
0.014
0.016
0.014
0.01
0.014
0.016
0.015
0.015
0.015
0.015
0.013
0.006
-0.001
-0.005
-0.009
-0.016
-0.023
-0.025
-0.025
-0.037
-0.045
-0.045
-0.046
-0.05
-0.05
-0.05
-0.049
-0.052
-0.06
-0.06
-0.06
-0.06
-0.059
-0.055
-0.055
-0.056
-0.053
-0.05
-0.05
-0.05
-0.047
-0.044
-0.045
-0.045
-0.041
-0.04
-0.04
-0.04
-0.04
-0.044
-0.045
-0.046
-0.052
-0.06
-0.069
-0.07
-0.072
-0.075
-0.075
-0.079
-0.079
-0.085
-0.098
-0.105
-0.104
-0.113
-0.077
-0.031
-0.03
0.029
0.077
0.153
0.256
0.31
0.338
0.335
0.328
0.322
0.3
0.276
0.251
0.196
0.097
-0.015
-0.085
-0.116
-0.151
-0.194
-0.205
-0.171
-0.165
-0.155
-0.123
-0.105
-0.086
-0.061
-0.044
-0.04
-0.04
-0.037
-0.028
-0.025
-0.024
-0.02
-0.02
-0.018
-0.012
-0.011
-0.015
-0.011
-0.009
-0.011
-0.009
-0.005
-0.005
-0.006
-0.003
0.0
-0.005
-0.006
-0.002
0.0
0.0
0.0
0.0
0.003
0.006
0.005
0.005
0.004
0.009
0.009
0.004
0.005
0.009
0.01
0.01
0.01
0.01
0.014
0.015
0.015
0.015
0.015
0.02
0.017
0.016
0.02
0.02
0.024
0.025
0.027
0.03
0.03
0.03
0.029
0.032
0.035
0.035
0.039
0.04
0.042
0.044
0.04
0.044
0.045
0.046
0.051
0.055
0.055
0.057
0.065
0.07
0.07
0.081
0.095
0.089
0.081
0.1
0.114
0.111
0.115
0.127
0.13
0.145
0.161
0.165
0.167
0.175
0.174
0.184
0.192
0.197
0.21
0.215
0.215
0.214
0.216
0.225
0.23
0.229
0.235
0.239
0.23
0.23
0.227
0.225
0.223
0.215
0.216
0.207
0.195
0.189
0.185
0.177
0.168
0.163
0.158
0.145
0.137
0.126
0.115
0.108
0.1
0.088
0.079
0.071
0.063
0.055
0.043
0.033
0.028
0.024
0.02
0.012
0.002
0.002
0.005
0.005
0.019
0.01
-0.005
-0.004
-0.005
-0.011
0.0
0.003
-0.007
-0.005
-0.003
-0.021
-0.031
-0.024
-0.025
-0.025
-0.025
-0.023
-0.02
-0.02
-0.02
-0.021
-0.018
-0.015
-0.015
-0.015
-0.015
-0.015
-0.014
-0.01
-0.01
-0.01
-0.011
-0.009
-0.005
-0.009
-0.011
-0.01
-0.01
-0.01
-0.01
-0.01
-0.01
-0.01
-0.01
-0.014
-0.015
-0.015
-0.014
-0.01
-0.009
-0.013
-0.015
-0.015
-0.015
-0.014
-0.019
-0.019
-0.014
-0.015
-0.015
-0.015
-0.015
-0.015
-0.015
-0.011
-0.006
-0.008
-0.017
-0.02
-0.011
-0.012
-0.016
-0.015
-0.015
-0.015
-0.015
-0.015
-0.015
-0.015
-0.019
-0.02
-0.02
-0.02
-0.02
-0.02
-0.019
-0.024
-0.031
-0.03
-0.03
-0.03
-0.03
-0.03
-0.03
-0.03
-0.03
-0.03
-0.03
-0.025
-0.012
-0.012
-0.016
-0.015
-0.015
-0.015
-0.015
-0.015
-0.015
-0.015
-0.019
-0.02
-0.02
-0.02
-0.02
-0.02
-0.023
-0.025
-0.026
-0.03
-0.03
-0.03
-0.03
-0.03
-0.03
-0.03
-0.03
-0.03
-0.03
-0.03
-0.03
-0.03
-0.03
-0.03
-0.03
-0.03
-0.03
-0.03
-0.03
-0.03
-0.03
-0.029
-0.034
-0.04
-0.035
-0.035
-0.035
-0.035
-0.034
-0.03
-0.03
-0.03
-0.03
-0.029
-0.025
-0.024
-0.028
-0.03
-0.03
-0.03
-0.026
-0.025
-0.025
-0.025
-0.025
-0.021
-0.02
-0.02
-0.02
-0.02
-0.024
-0.029
-0.03
-0.03
-0.03
-0.03
-0.03
-0.029
-0.032
-0.04
-0.032
-0.027
-0.021
-0.014
-0.015
-0.007
0.0
-0.004
-0.009
0.0
0.0
0.002
0.007
0.011
0.015
0.019
0.024
0.023
0.02
0.025
0.026
0.022
0.018
0.013
0.005
0.001
-0.003
-0.008
-0.009
-0.005
-0.005
-0.002
0.0
0.001
0.005
0.004
0.011
0.017
0.022
0.03
0.034
0.041
0.048
0.049
0.04
0.03
0.035
0.028
0.022
0.04
0.033
0.026
0.023
0.019
0.015
0.007
-0.002
-0.005
-0.007
-0.02
-0.029
-0.028
-0.024
-0.026
-0.03
-0.029
-0.04
-0.045
-0.039
-0.04
-0.04
-0.04
-0.04
-0.04
-0.04
-0.04
-0.04
-0.04
-0.041
-0.045
-0.045
-0.045
-0.045
-0.045
-0.045
-0.045
-0.048
-0.051
-0.05
-0.05
-0.05
-0.047
-0.044
-0.046
-0.05
-0.05
-0.05
-0.05
-0.05
-0.05
-0.054
-0.056
-0.053
-0.049
-0.05
-0.064
-0.089
-0.105
-0.085
-0.03
0.02
0.061
0.131
0.229
0.31
0.354
0.366
0.348
0.336
0.345
0.315
0.277
0.227
0.146
0.04
-0.053
-0.105
-0.15
-0.192
-0.195
-0.173
-0.175
-0.163
-0.127
-0.105
-0.081
-0.057
-0.048
-0.05
-0.045
-0.037
-0.029
-0.023
-0.019
-0.015
-0.011
-0.009
-0.012
-0.015
-0.01
-0.01
-0.01
-0.01
-0.01
-0.01
-0.01
-0.01
-0.01
-0.01
-0.01
-0.005
-0.008
-0.011
-0.009
-0.005
-0.004
-0.009
-0.008
-0.005
-0.005
-0.001
0.0
0.0
0.0
0.0
0.004
0.005
0.007
0.01
0.01
0.01
0.009
0.012
0.015
0.015
0.02
0.018
0.014
0.016
0.02
0.02
0.02
0.02
0.02
0.02
0.02
0.019
0.022
0.025
0.025
0.025
0.024
0.028
0.037
0.04
0.042
0.061
0.072
0.07
0.075
0.079
0.083
0.086
0.084
0.08
0.088
0.091
0.091
0.097
0.105
0.109
0.115
0.125
0.131
0.135
0.142
0.155
0.163
0.166
0.175
0.183
0.188
0.193
0.203
0.21
0.195
0.214
0.223
0.208
0.21
0.212
0.201
0.209
0.227
0.22
0.216
0.213
0.207
0.198
0.19
0.19
0.187
0.185
0.184
0.18
0.185
0.177
0.165
0.158
0.15
0.138
0.128
0.121
0.112
0.1
0.088
0.079
0.069
0.058
0.05
0.042
0.034
0.027
0.024
0.02
0.012
0.007
0.003
0.0
0.0
-0.004
-0.009
-0.009
-0.012
-0.02
-0.012
-0.006
-0.004
-0.007
-0.015
-0.014
-0.021
-0.024
-0.019
-0.02
-0.02
-0.02
-0.02
-0.019
-0.015
-0.015
-0.015
-0.015
-0.015
-0.015
-0.015
-0.012
-0.009
-0.01
-0.01
-0.01
-0.011
-0.008
-0.005
-0.005
-0.005
-0.008
-0.01
-0.01
-0.01
-0.006
-0.005
-0.005
-0.005
-0.005
-0.009
-0.01
-0.01
-0.01
-0.01
-0.01
-0.01
-0.01
-0.01
-0.01
-0.01
-0.01
-0.01
-0.01
-0.01
-0.01
-0.01
-0.01
-0.009
-0.005
-0.005
-0.006
-0.003
0.0
0.0
-0.001
0.003
0.005
0.006
0.005
-0.007
-0.012
-0.009
-0.012
-0.02
-0.016
-0.014
-0.015
-0.015
-0.015
-0.015
-0.015
-0.015
-0.015
-0.015
-0.015
-0.018
-0.021
-0.02
-0.02
-0.02
-0.02
-0.02
-0.02
-0.02
-0.02
-0.02
-0.02
-0.02
-0.02
-0.024
-0.025
-0.025
-0.025
-0.025
-0.033
-0.036
-0.035
-0.035
-0.035
-0.035
-0.035
-0.035
-0.034
-0.03
-0.03
-0.03
-0.03
-0.03
-0.03
-0.03
-0.03
-0.03
-0.03
-0.03
-0.03
-0.03
-0.03
-0.03
-0.03
-0.03
-0.03
-0.03
-0.029
-0.025
-0.025
-0.025
-0.025
-0.025
-0.025
-0.025
-0.026
-0.023
-0.02
-0.02
-0.02
-0.02
-0.02
-0.02
-0.02
-0.02
-0.017
-0.014
-0.015
-0.015
-0.015
-0.015
-0.015
-0.015
-0.015
-0.014
-0.021
-0.026
-0.025
-0.025
-0.025
-0.025
-0.025
-0.026
-0.03
-0.03
-0.03
-0.03
-0.03
-0.03
-0.034
-0.035
-0.035
-0.035
-0.035
-0.035
-0.034
-0.037
-0.04
-0.04
-0.04
-0.04
-0.039
-0.041
-0.045
-0.041
-0.036
-0.035
-0.035
-0.03
-0.025
-0.031
-0.036
-0.035
-0.035
-0.035
-0.035
-0.035
-0.035
-0.03
-0.022
-0.019
-0.022
-0.025
-0.025
-0.029
-0.031
-0.029
-0.032
-0.035
-0.018
-0.017
-0.017
-0.009
-0.01
-0.007
0.005
0.01
0.004
0.005
0.005
0.005
0.006
0.004
0.0
0.008
0.013
0.018
0.028
0.035
0.031
0.027
0.023
0.019
0.015
0.011
0.004
-0.003
-0.006
-0.01
-0.018
-0.023
-0.027
-0.031
-0.035
-0.039
-0.044
-0.043
-0.04
-0.04
-0.04
-0.041
-0.036
-0.03
-0.035
-0.034
-0.041
-0.046
-0.045
-0.045
-0.045
-0.045
-0.045
-0.045
-0.045
-0.045
-0.045
-0.045
-0.045
-0.045
-0.045
-0.045
-0.045
-0.045
-0.045
-0.045
-0.045
-0.045
-0.045
-0.045
-0.045
-0.048
-0.051
-0.049
-0.05
-0.059
-0.058
-0.054
-0.064
-0.085
-0.096
-0.111
-0.078
-0.038
-0.05
-0.005
0.051
0.133
0.23
0.285
0.31
0.294
0.288
0.284
0.24
0.219
0.195
0.133
0.05
-0.02
-0.09
-0.145
-0.198
-0.243
-0.25
-0.217
-0.171
-0.147
-0.145
-0.135
-0.105
-0.064
-0.046
-0.051
-0.05
-0.047
-0.036
-0.027
-0.023
-0.015
-0.015
-0.012
-0.009
-0.01
-0.01
-0.011
-0.006
-0.007
-0.01
-0.005
-0.005
-0.005
-0.005
-0.005
-0.005
0.0
-0.003
-0.006
-0.004
0.0
0.0
0.0
0.0
0.0
0.0
0.005
0.002
0.001
0.006
0.005
0.0
0.003
0.006
0.005
0.005
0.005
0.005
0.007
0.011
0.01
0.005
0.008
0.011
0.01
0.01
0.014
0.016
0.014
0.016
0.02
0.02
0.019
0.022
0.025
0.025
0.036
0.055
0.058
0.049
0.05
0.05
0.05
0.05
0.049
0.05
0.063
0.064
0.072
0.078
0.065
0.084
0.098
0.103
0.103
0.095
0.109
0.133
0.139
0.136
0.15
0.155
0.157
0.164
0.172
0.175
0.173
0.188
0.194
0.192
0.21
0.216
0.208
0.206
0.211
0.215
0.224
0.223
0.217
0.207
0.195
0.199
0.198
0.194
0.195
0.195
0.196
0.191
0.192
0.193
0.18
0.171
0.168
0.16
0.147
0.14
0.137
0.127
0.113
0.104
0.1
0.089
0.074
0.07
0.069
0.06
0.056
0.052
0.048
0.044
0.04
0.036
0.029
0.023
0.019
0.015
0.012
0.003
-0.001
-0.001
-0.005
-0.006
-0.001
-0.001
-0.006
-0.005
-0.001
0.001
-0.002
-0.005
0.0
0.0
0.0
0.0
0.0
0.0
0.001
-0.004
-0.003
0.0
0.0
0.009
0.005
-0.001
0.0
0.0
0.0
0.0
0.0
0.0
0.0
0.0
-0.003
-0.006
-0.005
-0.005
-0.005
-0.004
-0.007
-0.011
-0.01
-0.006
-0.004
-0.007
-0.01
-0.01
-0.01
-0.01
-0.01
-0.011
-0.015
-0.015
-0.015
-0.015
-0.015
-0.015
-0.015
-0.015
-0.015
-0.015
-0.015
-0.015
-0.015
-0.015
-0.015
-0.015
-0.015
-0.015
-0.015
-0.015
-0.015
-0.015
-0.015
-0.015
-0.015
-0.015
-0.016
-0.008
-0.006
-0.011
-0.01
-0.009
-0.013
-0.016
-0.015
-0.015
-0.015
-0.015
-0.015
-0.015
-0.015
-0.015
-0.018
-0.021
-0.02
-0.02
-0.02
-0.02
-0.02
-0.02
-0.02
-0.02
-0.02
-0.02
-0.019
-0.015
-0.011
-0.004
0.001
0.0
0.0
0.0
0.0
0.0
0.0
0.0
0.0
0.0
0.0
0.0
0.0
0.002
-0.013
-0.02
-0.014
-0.015
-0.015
-0.015
-0.015
-0.015
-0.015
-0.015
-0.015
-0.015
-0.015
-0.015
-0.019
-0.02
-0.02
-0.02
-0.02
-0.02
-0.02
-0.02
-0.021
-0.025
-0.025
-0.025
-0.025
-0.025
-0.025
-0.021
-0.019
-0.022
-0.025
-0.025
-0.025
-0.025
-0.025
-0.024
-0.02
-0.02
-0.021
-0.018
-0.015
-0.015
-0.015
-0.017
-0.009
0.0
-0.005
-0.005
-0.005
-0.005
-0.005
-0.005
-0.005
-0.003
-0.013
-0.026
-0.02
-0.02
-0.02
-0.02
-0.02
-0.02
-0.019
-0.024
-0.024
-0.019
-0.02
-0.02
-0.02
-0.02
-0.02
-0.02
-0.022
-0.007
0.0
-0.006
-0.005
-0.005
-0.005
-0.005
-0.005
-0.005
-0.004
-0.009
-0.009
-0.013
-0.025
-0.021
-0.019
-0.02
-0.02
-0.02
-0.024
-0.025
-0.025
-0.025
-0.025
-0.025
-0.025
-0.025
-0.024
-0.02
-0.016
-0.015
-0.015
-0.015
-0.015
-0.011
-0.01
-0.01
-0.01
-0.01
-0.01
-0.009
-0.014
-0.02
-0.015
-0.015
-0.015
-0.015
-0.015
-0.015
-0.011
-0.01
-0.01
-0.01
-0.01
-0.01
-0.011
-0.008
-0.005
-0.005
-0.005
-0.004
-0.007
-0.009
-0.005
-0.009
-0.01
-0.012
-0.015
-0.015
-0.02
-0.017
-0.015
-0.014
-0.01
-0.018
-0.021
-0.021
-0.027
-0.03
-0.022
-0.016
-0.015
-0.015
-0.01
0.007
0.009
0.002
0.0
0.0
-0.001
0.011
0.026
0.03
0.03
0.03
0.03
0.03
0.03
0.03
0.03
0.03
0.03
0.03
0.03
0.031
0.026
0.028
0.036
0.04
0.049
0.048
0.044
0.045
0.045
0.042
0.034
0.028
0.023
0.015
0.011
0.006
0.006
0.003
-0.005
0.0
-0.008
-0.019
-0.02
-0.02
-0.02
-0.019
-0.022
-0.026
-0.025
-0.021
-0.018
-0.026
-0.035
-0.03
-0.03
-0.03
-0.03
-0.03
-0.03
-0.03
-0.03
-0.03
-0.03
-0.03
-0.03
-0.03
-0.03
-0.03
-0.03
-0.03
-0.03
-0.03
-0.03
-0.03
-0.038
-0.044
-0.046
-0.052
-0.06
-0.062
-0.084
-0.098
-0.086
-0.06
-0.02
0.02
0.063
0.121
0.2
0.29
0.356
0.368
0.354
0.355
0.337
0.31
0.277
0.223
0.145
0.069
-0.007
-0.065
-0.114
-0.17
-0.187
-0.168
-0.146
-0.129
-0.1
-0.071
-0.049
-0.033
-0.023
-0.02
-0.02
-0.018
-0.009
0.003
0.01
0.014
0.018
0.021
0.019
0.015
0.019
0.021
0.018
0.014
0.015
0.02
0.017
0.014
0.015
0.015
0.015
0.015
0.015
0.015
0.015
0.015
0.015
0.015
0.015
0.015
0.015
0.015
0.015
0.016
0.02
0.02
0.023
0.026
0.025
0.025
0.029
0.03
0.032
0.036
0.035
0.034
0.038
0.04
0.041
0.045
0.045
0.044
0.047
0.05
0.05
0.05
0.05
0.05
0.05
0.05
0.05
0.053
0.055
0.056
0.06
0.06
0.063
0.065
0.066
0.07
0.069
0.076
0.081
0.079
0.08
0.088
0.093
0.098
0.108
0.12
0.121
0.118
0.127
0.135
0.13
0.145
0.164
0.173
0.176
0.18
0.188
0.196
0.205
0.209
0.205
0.217
0.224
0.226
0.231
0.235
0.234
0.245
0.25
0.244
0.245
0.241
0.236
0.235
0.234
0.23
0.231
0.224
0.219
0.221
0.22
0.208
0.199
0.191
0.184
0.18
0.176
0.17
0.159
0.147
0.135
0.127
0.12
0.109
0.098
0.095
0.088
0.075
0.07
0.069
0.06
0.06
0.058
0.051
0.043
0.035
0.027
0.021
0.02
0.02
0.02
0.024
0.025
0.025
0.024
0.02
0.02
0.017
0.013
0.009
0.005
0.005
0.005
0.005
0.005
0.005
0.005
0.005
0.005
0.005
0.005
0.005
0.005
0.005
0.005
0.005
0.005
0.005
0.005
0.005
0.005
0.005
0.005
0.005
0.005
0.005
0.005
0.005
0.005
0.005
0.005
0.005
0.005
0.005
0.005
0.005
0.005
0.002
-0.001
0.0
0.0
0.0
0.003
0.005
0.005
0.005
0.001
0.0
0.0
0.0
0.0
0.0
0.0
0.0
0.0
0.0
0.004
0.005
0.005
0.005
0.005
0.005
0.005
0.005
0.005
0.005
0.005
0.005
0.005
0.004
0.005
0.014
0.012
0.013
0.012
-0.005
-0.002
0.001
0.0
0.0
0.0
0.0
0.0
0.0
0.0
0.0
-0.004
-0.005
-0.005
-0.005
-0.005
-0.005
-0.005
-0.005
-0.005
-0.005
-0.005
-0.005
-0.005
-0.006
-0.01
-0.01
-0.01
-0.008
-0.005
-0.005
-0.005
-0.005
-0.005
-0.005
-0.005
-0.005
-0.005
-0.005
-0.005
-0.005
-0.01
-0.001
0.007
-0.004
-0.02
-0.017
-0.014
-0.015
-0.015
-0.015
-0.015
-0.012
-0.009
-0.01
-0.01
-0.01
-0.013
-0.016
-0.014
-0.01
-0.01
-0.01
-0.01
-0.01
-0.01
-0.006
-0.005
-0.005
-0.005
-0.005
-0.006
0.002
0.002
-0.006
-0.005
-0.005
-0.005
-0.005
-0.005
-0.005
0.003
0.011
0.004
-0.015
-0.025
-0.021
-0.022
-0.026
-0.024
-0.02
-0.02
-0.021
-0.018
-0.015
-0.015
-0.015
-0.012
-0.009
-0.01
-0.01
-0.006
-0.005
-0.005
-0.005
0.0
0.013
0.013
0.011
0.016
0.015
0.015
0.016
0.013
0.001
-0.01
-0.006
-0.004
-0.006
-0.004
0.0
-0.004
-0.006
-0.003
0.0
0.0
0.0
0.0
0.0
0.0
0.0
0.004
0.005
0.005
0.005
0.005
0.001
0.0
0.0
0.0
0.0
0.0
-0.003
-0.006
-0.005
-0.005
-0.005
-0.005
-0.006
-0.011
-0.015
-0.012
0.001
0.017
0.027
0.03
0.034
0.038
0.041
0.04
0.04
0.044
0.046
0.044
0.046
0.05
0.05
0.049
0.052
0.055
0.055
0.055
0.055
0.054
0.048
0.045
0.053
0.056
0.053
0.049
0.045
0.041
0.036
0.036
0.033
0.025
0.031
0.013
-0.006
-0.004
0.0
-0.004
-0.005
-0.007
-0.01
-0.01
-0.01
-0.01
-0.01
-0.009
-0.005
-0.009
-0.014
-0.015
-0.015
-0.015
-0.019
-0.021
-0.019
-0.022
-0.03
-0.03
-0.03
-0.03
-0.03
-0.03
-0.025
-0.028
-0.031
-0.03
-0.03
-0.03
-0.03
-0.03
-0.03
-0.03
-0.03
-0.03
-0.031
-0.038
-0.05
-0.044
-0.031
-0.052
-0.084
-0.075
-0.06
-0.036
0.013
0.066
0.115
0.214
0.303
0.36
0.381
0.375
0.375
0.366
0.34
0.307
0.265
0.188
0.096
0.007
-0.057
-0.1
-0.162
-0.193
-0.179
-0.147
-0.12
-0.096
-0.071
-0.051
-0.036
-0.02
-0.019
-0.021
-0.019
-0.012
0.0
0.009
0.013
0.017
0.021
0.02
0.015
0.018
0.021
0.019
0.015
0.019
0.021
0.018
0.015
0.02
0.021
0.016
0.016
0.021
0.02
0.015
0.018
0.021
0.02
0.02
0.02
0.019
0.022
0.025
0.025
0.025
0.028
0.031
0.03
0.03
0.03
0.029
0.032
0.035
0.035
0.039
0.041
0.038
0.035
0.04
0.04
0.039
0.042
0.045
0.045
0.044
0.049
0.049
0.044
0.045
0.049
0.05
0.05
0.049
0.045
0.053
0.059
0.061
0.067
0.075
0.08
0.08
0.08
0.08
0.08
0.078
0.09
0.093
0.092
0.105
0.105
0.113
0.124
0.133
0.145
0.145
0.15
0.158
0.169
0.185
0.181
0.187
0.202
0.211
0.215
0.223
0.228
0.233
0.242
0.25
0.254
0.256
0.253
0.25
0.25
0.25
0.249
0.255
0.259
0.25
0.246
0.243
0.236
0.228
0.225
0.226
0.214
0.2
0.193
0.185
0.181
0.174
0.169
0.162
0.145
0.137
0.123
0.11
0.102
0.09
0.082
0.072
0.072
0.074
0.06
0.051
0.051
0.045
0.033
0.03
0.035
0.029
0.025
0.031
0.03
0.022
0.019
0.021
0.018
0.01
0.014
0.016
0.015
0.015
0.015
0.015
0.014
0.017
0.012
-0.005
-0.002
0.002
-0.003
-0.005
0.0
0.0
0.0
0.0
0.001
0.005
0.006
0.002
-0.001
0.001
0.005
0.005
0.004
0.007
0.01
0.01
0.01
0.006
0.006
0.01
0.01
0.01
0.006
0.006
0.01
0.01
0.01
0.007
0.004
0.005
0.005
0.005
0.006
0.003
0.0
0.0
0.0
0.004
0.004
-0.001
0.0
0.0
0.0
-0.001
0.002
0.01
0.006
0.004
0.005
0.005
0.005
0.01
0.001
-0.007
-0.005
-0.005
-0.005
-0.005
-0.005
-0.005
-0.005
-0.005
-0.005
-0.005
-0.005
-0.005
-0.005
-0.005
-0.005
-0.005
-0.005
-0.005
-0.004
-0.007
-0.01
-0.01
-0.01
-0.01
-0.01
-0.01
-0.01
-0.014
-0.015
-0.015
-0.015
-0.015
-0.011
-0.009
-0.013
-0.013
0.0
-0.003
-0.006
-0.005
-0.005
-0.005
-0.005
-0.005
-0.005
-0.005
-0.005
-0.005
-0.005
-0.005
-0.006
-0.01
-0.01
-0.01
-0.01
-0.01
-0.01
-0.01
-0.01
-0.01
-0.01
-0.01
-0.01
-0.01
-0.01
-0.01
-0.01
-0.01
-0.01
-0.01
-0.01
-0.01
-0.01
-0.01
-0.01
-0.01
-0.01
-0.01
-0.01
-0.01
-0.01
-0.01
-0.01
-0.01
-0.01
-0.01
-0.01
-0.01
-0.01
-0.01
-0.01
-0.01
-0.01
-0.01
-0.01
-0.01
-0.01
-0.01
-0.01
-0.01
-0.01
-0.01
-0.01
-0.01
-0.01
-0.01
-0.01
-0.01
-0.01
-0.01
-0.01
-0.055
-0.055
-0.055
-0.055
-0.055
-0.055
-0.052
-0.043
-0.039
-0.04
-0.04
-0.045
-0.042
-0.041
-0.046
-0.045
-0.045
-0.044
-0.047
-0.05
-0.045
-0.045
-0.046
-0.043
-0.04
-0.04
-0.04
-0.04
-0.04
-0.04
-0.04
-0.036
-0.035
-0.035
-0.035
-0.035
-0.035
-0.036
-0.033
-0.03
-0.03
-0.026
-0.024
-0.026
-0.024
-0.02
-0.024
-0.022
-0.02
-0.019
-0.015
-0.015
-0.016
-0.013
-0.01
-0.01
-0.011
-0.007
-0.005
-0.005
0.0
0.004
0.005
0.005
0.005
0.005
0.009
0.013
0.017
0.021
0.025
0.029
0.033
0.037
0.041
0.045
0.046
0.042
0.039
0.042
0.055
0.073
0.075
0.081
0.09
0.09
0.111
0.113
0.112
0.122
0.125
0.132
0.144
0.156
0.168
0.175
0.179
0.184
0.184
0.187
0.195
0.191
0.19
0.189
0.192
0.2
0.192
0.187
0.181
0.174
0.17
0.166
0.162
0.158
0.155
0.15
0.137
0.138
0.138
0.128
0.12
0.112
0.101
0.089
0.077
0.065
0.053
0.044
0.034
0.023
0.02
0.017
0.009
0.003
-0.002
-0.01
-0.014
-0.016
-0.011
-0.013
-0.035
-0.041
-0.036
-0.039
-0.045
-0.04
-0.032
-0.025
-0.03
-0.043
-0.05
-0.05
-0.05
-0.05
-0.05
-0.05
-0.05
-0.051
-0.047
-0.047
-0.06
-0.057
-0.054
-0.055
-0.055
-0.055
-0.055
-0.052
-0.049
-0.05
-0.05
-0.05
-0.05
-0.05
-0.05
-0.05
-0.05
-0.05
-0.05
-0.05
-0.05
-0.046
-0.045
-0.045
-0.045
-0.045
-0.045
-0.044
-0.049
-0.055
-0.05
-0.05
-0.05
-0.05
-0.05
-0.05
-0.046
-0.045
-0.045
-0.045
-0.045
-0.045
-0.046
-0.043
-0.04
-0.04
-0.04
-0.04
-0.04
-0.039
-0.035
-0.035
-0.035
-0.035
-0.035
-0.035
-0.033
-0.048
-0.055
-0.049
-0.05
-0.05
-0.05
-0.05
-0.049
-0.045
-0.045
-0.045
-0.045
-0.046
-0.05
-0.051
-0.047
-0.045
-0.045
-0.045
-0.049
-0.051
-0.048
-0.045
-0.045
-0.045
-0.044
-0.047
-0.05
-0.05
-0.058
-0.064
-0.066
-0.064
-0.065
-0.078
-0.081
-0.08
-0.08
-0.08
-0.08
-0.08
-0.08
-0.08
-0.08
-0.08
-0.08
-0.08
-0.08
-0.08
-0.072
-0.066
-0.065
-0.065
-0.065
-0.065
-0.065
-0.065
-0.065
-0.065
-0.065
-0.065
-0.065
-0.064
-0.06
-0.06
-0.06
-0.06
-0.06
-0.06
-0.056
-0.055
-0.055
-0.055
-0.055
-0.055
-0.056
-0.053
-0.05
-0.055
-0.055
-0.055
-0.055
-0.054
-0.05
-0.05
-0.05
-0.05
-0.05
-0.05
-0.05
-0.053
-0.056
-0.055
-0.055
-0.055
-0.055
-0.055
-0.055
-0.055
-0.055
-0.055
-0.055
-0.055
-0.055
-0.055
-0.058
-0.061
-0.06
-0.06
-0.06
-0.06
-0.06
-0.06
-0.06
-0.064
-0.065
-0.065
-0.065
-0.065
-0.061
-0.06
-0.06
-0.061
-0.065
-0.066
-0.062
-0.059
-0.06
-0.06
-0.06
-0.061
-0.057
-0.057
-0.075
-0.089
-0.088
-0.084
-0.085
-0.085
-0.081
-0.079
-0.081
-0.079
-0.075
-0.075
-0.075
-0.075
-0.075
-0.075
-0.075
-0.072
-0.069
-0.07
-0.07
-0.066
-0.064
-0.066
-0.064
-0.06
-0.059
-0.067
-0.07
-0.071
-0.08
-0.084
-0.091
-0.096
-0.094
-0.09
-0.09
-0.087
-0.084
-0.085
-0.085
-0.081
-0.074
-0.066
-0.058
-0.05
-0.042
-0.033
-0.031
-0.036
-0.035
-0.034
-0.04
-0.035
-0.024
-0.025
-0.021
-0.017
-0.013
-0.009
-0.005
-0.005
-0.005
-0.005
-0.005
-0.005
0.0
-0.008
-0.02
-0.026
-0.03
-0.038
-0.043
-0.049
-0.057
-0.06
-0.056
-0.053
-0.06
-0.064
-0.06
-0.072
-0.077
-0.074
-0.077
-0.085
-0.081
-0.079
-0.08
-0.08
-0.08
-0.08
-0.08
-0.08
-0.08
-0.08
-0.08
-0.08
-0.08
-0.079
-0.075
-0.075
-0.075
-0.075
-0.075
-0.075
-0.075
-0.075
-0.075
-0.075
-0.075
-0.075
-0.075
-0.074
-0.077
-0.09
-0.1
-0.096
-0.1
-0.12
-0.135
-0.124
-0.081
-0.065
-0.065
-0.01
0.075
0.145
0.206
0.254
0.265
0.244
0.238
0.191
0.142
0.16
0.115
0.028
-0.05
-0.11
-0.165
-0.203
-0.262
-0.288
-0.271
-0.255
-0.215
-0.185
-0.164
-0.138
-0.11
-0.094
-0.076
-0.069
-0.07
-0.065
-0.061
-0.057
-0.053
-0.049
-0.045
-0.045
-0.046
-0.043
-0.04
-0.04
-0.04
-0.04
-0.04
-0.039
-0.035
-0.035
-0.036
-0.033
-0.031
-0.035
-0.031
-0.029
-0.031
-0.029
-0.025
-0.029
-0.031
-0.028
-0.025
-0.025
-0.026
-0.021
-0.021
-0.026
-0.025
-0.021
-0.019
-0.021
-0.019
-0.015
-0.014
-0.019
-0.019
-0.014
-0.015
-0.016
-0.012
-0.009
-0.01
-0.01
-0.01
-0.01
-0.01
-0.01
-0.01
-0.006
-0.002
0.002
0.006
0.01
0.01
0.01
0.01
0.019
0.04
0.041
0.036
0.035
0.034
0.035
0.048
0.048
0.045
0.052
0.06
0.06
0.062
0.07
0.074
0.07
0.081
0.098
0.11
0.116
0.12
0.12
0.124
0.137
0.146
0.145
0.152
0.162
0.167
0.171
0.17
0.165
0.171
0.176
0.174
0.175
0.183
0.189
0.19
0.19
0.19
0.186
0.184
0.17
0.153
0.155
0.147
0.146
0.14
0.128
0.125
0.117
0.112
0.106
0.099
0.095
0.083
0.074
0.066
0.059
0.055
0.047
0.039
0.031
0.023
0.015
0.007
0.002
-0.002
-0.006
-0.01
-0.014
-0.015
-0.017
-0.021
-0.02
-0.019
-0.025
-0.035
-0.041
-0.04
-0.04
-0.037
-0.034
-0.035
-0.035
-0.035
-0.034
-0.039
-0.045
-0.04
-0.04
-0.041
-0.038
-0.034
-0.03
-0.03
-0.03
-0.028
-0.024
-0.02
-0.02
-0.02
-0.019
-0.021
-0.025
-0.021
-0.019
-0.022
-0.026
-0.025
-0.021
-0.019
-0.022
-0.025
-0.025
-0.025
-0.025
-0.027
-0.03
-0.03
-0.03
-0.033
-0.035
-0.035
-0.035
-0.035
-0.038
-0.041
-0.04
-0.04
-0.04
-0.04
-0.04
-0.04
-0.04
-0.04
-0.04
-0.04
-0.04
-0.04
-0.04
-0.04
-0.04
-0.04
-0.04
-0.04
-0.04
-0.04
-0.04
-0.04
-0.04
-0.037
-0.033
-0.038
-0.05
-0.05
-0.055
-0.064
-0.064
-0.06
-0.06
-0.06
-0.06
-0.06
-0.06
-0.06
-0.06
-0.06
-0.06
-0.06
-0.06
-0.06
-0.06
-0.06
-0.06
-0.06
-0.06
-0.06
-0.06
-0.06
-0.06
-0.06
-0.06
-0.06
-0.06
-0.056
-0.051
-0.05
-0.05
-0.05
-0.05
-0.05
-0.05
-0.049
-0.045
-0.045
-0.045
-0.045
-0.045
-0.045
-0.041
-0.04
-0.038
-0.035
-0.035
-0.035
-0.035
-0.035
-0.035
-0.035
-0.035
-0.034
-0.037
-0.04
-0.035
-0.034
-0.041
-0.046
-0.045
-0.045
-0.045
-0.046
-0.043
-0.04
-0.04
-0.04
-0.04
-0.04
-0.04
-0.04
-0.04
-0.043
-0.046
-0.045
-0.045
-0.049
-0.051
-0.049
-0.051
-0.055
-0.051
-0.05
-0.048
-0.054
-0.075
-0.072
-0.069
-0.071
-0.069
-0.065
-0.065
-0.066
-0.063
-0.06
-0.06
-0.056
-0.055
-0.054
-0.048
-0.045
-0.057
-0.062
-0.058
-0.063
-0.075
-0.067
-0.064
-0.064
-0.059
-0.055
-0.055
-0.052
-0.05
-0.048
-0.04
-0.039
-0.041
-0.037
-0.028
-0.02
-0.011
-0.008
0.001
0.01
0.005
0.005
0.005
0.005
0.005
0.005
0.006
0.001
0.002
0.005
0.005
0.01
0.005
-0.003
-0.006
-0.01
-0.014
-0.018
-0.021
-0.029
-0.045
-0.046
-0.044
-0.048
-0.057
-0.065
-0.07
-0.067
-0.064
-0.065
-0.065
-0.061
-0.059
-0.063
-0.064
-0.06
-0.064
-0.067
-0.059
-0.05
-0.055
-0.055
-0.055
-0.055
-0.055
-0.055
-0.055
-0.058
-0.061
-0.06
-0.06
-0.065
-0.062
-0.059
-0.061
-0.065
-0.065
-0.064
-0.067
-0.071
-0.07
-0.068
-0.087
-0.109
-0.115
-0.11
-0.102
-0.13
-0.145
-0.124
-0.1
-0.066
-0.021
0.018
0.074
0.17
0.246
0.289
0.305
0.295
0.28
0.293
0.253
0.21
0.178
0.1
0.002
-0.074
-0.121
-0.169
-0.225
-0.24
-0.239
-0.21
-0.175
-0.17
-0.143
-0.115
-0.097
-0.081
-0.065
-0.06
-0.061
-0.058
-0.055
-0.055
-0.051
-0.047
-0.043
-0.04
-0.04
-0.036
-0.034
-0.037
-0.032
-0.02
-0.024
-0.023
-0.019
-0.021
-0.025
-0.021
-0.02
-0.018
-0.015
-0.02
-0.021
-0.017
-0.014
-0.016
-0.02
-0.016
-0.014
-0.018
-0.02
-0.015
-0.015
-0.015
-0.015
-0.015
-0.015
-0.016
-0.011
-0.011
-0.016
-0.015
-0.011
-0.009
-0.011
-0.009
-0.005
-0.005
-0.006
-0.003
0.0
0.0
0.0
-0.001
0.002
0.005
0.005
0.005
0.005
0.007
0.011
0.015
0.019
0.02
0.02
0.019
0.02
0.04
0.053
0.057
0.06
0.06
0.06
0.059
0.064
0.071
0.07
0.076
0.094
0.1
0.103
0.12
0.111
0.118
0.127
0.125
0.13
0.146
0.159
0.171
0.182
0.185
0.182
0.171
0.177
0.191
0.185
0.187
0.204
0.21
0.205
0.205
0.192
0.192
0.193
0.19
0.195
0.191
0.193
0.193
0.191
0.195
0.184
0.169
0.163
0.158
0.145
0.137
0.13
0.119
0.107
0.095
0.087
0.076
0.064
0.052
0.045
0.041
0.035
0.024
0.013
0.01
0.007
-0.002
-0.006
-0.005
-0.01
-0.019
-0.02
-0.022
-0.025
-0.02
-0.023
-0.033
-0.031
-0.026
-0.04
-0.041
-0.037
-0.034
-0.035
-0.035
-0.031
-0.03
-0.027
-0.026
-0.035
-0.032
-0.026
-0.025
-0.025
-0.025
-0.021
-0.017
-0.014
-0.016
-0.02
-0.02
-0.02
-0.02
-0.019
-0.015
-0.015
-0.015
-0.017
-0.021
-0.02
-0.016
-0.015
-0.015
-0.015
-0.015
-0.015
-0.017
-0.025
-0.03
-0.025
-0.025
-0.025
-0.025
-0.025
-0.025
-0.025
-0.025
-0.025
-0.025
-0.025
-0.025
-0.025
-0.025
-0.025
-0.025
-0.025
-0.025
-0.025
-0.025
-0.025
-0.025
-0.025
-0.025
-0.025
-0.025
-0.025
-0.022
-0.019
-0.02
-0.02
-0.02
-0.02
-0.02
-0.021
-0.025
-0.025
-0.025
-0.025
-0.025
-0.025
-0.025
-0.025
-0.025
-0.025
-0.025
-0.025
-0.024
-0.027
-0.03
-0.03
-0.03
-0.03
-0.03
-0.03
-0.03
-0.039
-0.038
-0.034
-0.035
-0.035
-0.035
-0.038
-0.04
-0.04
-0.04
-0.036
-0.035
-0.035
-0.035
-0.035
-0.039
-0.04
-0.04
-0.039
-0.035
-0.035
-0.035
-0.035
-0.036
-0.04
-0.04
-0.04
-0.039
-0.042
-0.055
-0.056
-0.055
-0.055
-0.056
-0.06
-0.06
-0.06
-0.06
-0.06
-0.06
-0.06
-0.06
-0.06
-0.06
-0.06
-0.06
-0.06
-0.06
-0.06
-0.06
-0.06
-0.06
-0.061
-0.067
-0.075
-0.071
-0.07
-0.068
-0.065
-0.065
-0.061
-0.056
-0.055
-0.054
-0.05
-0.05
-0.047
-0.045
-0.044
-0.04
-0.04
-0.041
-0.038
-0.035
-0.04
-0.041
-0.037
-0.033
-0.03
-0.03
-0.034
-0.041
-0.049
-0.049
-0.04
-0.036
-0.031
-0.032
-0.035
-0.035
-0.039
-0.043
-0.048
-0.05
-0.045
-0.037
-0.029
-0.021
-0.013
-0.005
0.007
0.015
0.013
0.01
0.01
0.01
0.011
0.008
0.005
0.005
0.0
0.003
0.003
0.001
0.005
-0.003
-0.005
-0.009
-0.016
-0.015
-0.023
-0.025
-0.026
-0.031
-0.035
-0.04
-0.039
-0.046
-0.055
-0.05
-0.058
-0.059
-0.052
-0.059
-0.075
-0.067
-0.064
-0.065
-0.065
-0.065
-0.065
-0.066
-0.063
-0.06
-0.06
-0.06
-0.06
-0.061
-0.058
-0.05
-0.05
-0.05
-0.05
-0.05
-0.05
-0.05
-0.053
-0.055
-0.056
-0.06
-0.061
-0.058
-0.066
-0.076
-0.07
-0.068
-0.082
-0.092
-0.089
-0.095
-0.12
-0.126
-0.11
-0.081
-0.045
-0.014
0.03
0.095
0.185
0.28
0.325
0.34
0.335
0.322
0.315
0.306
0.265
0.203
0.13
0.035
-0.066
-0.117
-0.146
-0.185
-0.22
-0.229
-0.197
-0.174
-0.165
-0.125
-0.086
-0.075
-0.072
-0.063
-0.055
-0.047
-0.042
-0.038
-0.035
-0.035
-0.035
-0.032
-0.029
-0.03
-0.03
-0.026
-0.024
-0.026
-0.024
-0.02
-0.024
-0.026
-0.022
-0.02
-0.025
-0.025
-0.025
-0.025
-0.025
-0.025
-0.025
-0.025
-0.025
-0.025
-0.025
-0.025
-0.022
-0.019
-0.02
-0.02
-0.02
-0.017
-0.014
-0.015
-0.015
-0.015
-0.015
-0.015
-0.014
-0.01
-0.01
-0.007
-0.005
-0.004
0.0
0.0
0.003
0.005
0.006
0.01
0.01
0.013
0.015
0.015
0.02
0.024
0.025
0.026
0.031
0.035
0.036
0.033
0.041
0.05
0.045
0.045
0.046
0.044
0.047
0.06
0.064
0.068
0.071
0.077
0.09
0.099
0.1
0.102
0.114
0.125
0.124
0.135
0.154
0.159
0.15
0.161
0.171
0.166
0.168
0.185
0.185
0.193
0.205
0.211
0.215
0.217
0.205
0.2
0.206
0.205
0.192
0.189
0.191
0.189
0.185
0.187
0.172
0.166
0.169
0.16
0.157
0.146
0.137
0.134
0.125
0.117
0.109
0.101
0.092
0.08
0.072
0.064
0.055
0.049
0.045
0.033
0.023
0.018
0.014
0.01
0.011
0.004
0.0
-0.001
-0.01
-0.014
-0.021
-0.028
-0.03
-0.03
-0.034
-0.035
-0.035
-0.034
-0.03
-0.03
-0.031
-0.027
-0.026
-0.035
-0.04
-0.037
-0.034
-0.035
-0.035
-0.031
-0.03
-0.03
-0.03
-0.03
-0.034
-0.035
-0.035
-0.035
-0.035
-0.035
-0.038
-0.041
-0.04
-0.04
-0.04
-0.04
-0.04
-0.041
-0.045
-0.045
-0.045
-0.043
-0.039
-0.04
-0.045
-0.042
-0.039
-0.04
-0.04
-0.04
-0.037
-0.034
-0.035
-0.035
-0.035
-0.032
-0.029
-0.03
-0.03
-0.026
-0.024
-0.026
-0.023
-0.015
-0.015
-0.015
-0.015
-0.015
-0.015
-0.01
-0.013
-0.016
-0.015
-0.015
-0.013
-0.027
-0.039
-0.041
-0.045
-0.045
-0.045
-0.045
-0.045
-0.045
-0.049
-0.05
-0.05
-0.05
-0.05
-0.05
-0.051
-0.048
-0.045
-0.045
-0.045
-0.046
-0.041
-0.043
-0.06
-0.057
-0.051
-0.05
-0.05
-0.05
-0.05
-0.05
-0.05
-0.049
-0.045
-0.041
-0.04
-0.04
-0.04
-0.04
-0.04
-0.04
-0.038
-0.034
-0.035
-0.039
-0.04
-0.04
-0.04
-0.04
-0.04
-0.04
-0.041
-0.047
-0.055
-0.055
-0.055
-0.055
-0.055
-0.055
-0.055
-0.057
-0.049
-0.048
-0.07
-0.067
-0.064
-0.066
-0.064
-0.06
-0.06
-0.059
-0.062
-0.065
-0.06
-0.059
-0.064
-0.064
-0.059
-0.06
-0.064
-0.066
-0.063
-0.06
-0.065
-0.065
-0.065
-0.063
-0.059
-0.055
-0.051
-0.05
-0.049
-0.044
-0.04
-0.04
-0.038
-0.048
-0.061
-0.055
-0.055
-0.052
-0.05
-0.049
-0.045
-0.045
-0.046
-0.041
-0.034
-0.035
-0.031
-0.029
-0.031
-0.029
-0.025
-0.025
-0.022
-0.018
-0.014
-0.01
-0.01
-0.007
-0.003
0.001
0.005
0.001
0.0
-0.002
-0.005
-0.005
-0.009
-0.009
-0.014
-0.021
-0.02
-0.024
-0.028
-0.032
-0.035
-0.035
-0.039
-0.041
-0.039
-0.042
-0.055
-0.064
-0.068
-0.071
-0.069
-0.065
-0.065
-0.065
-0.065
-0.064
-0.06
-0.06
-0.06
-0.06
-0.06
-0.06
-0.056
-0.055
-0.055
-0.055
-0.055
-0.049
-0.061
-0.074
-0.075
-0.075
-0.075
-0.072
-0.069
-0.07
-0.07
-0.07
-0.07
-0.07
-0.07
-0.07
-0.07
-0.07
-0.07
-0.07
-0.07
-0.074
-0.076
-0.105
-0.13
-0.1
-0.067
-0.036
0.012
0.077
0.15
0.231
0.294
0.312
0.303
0.3
0.289
0.269
0.238
0.191
0.12
0.029
-0.063
-0.127
-0.163
-0.2
-0.249
-0.249
-0.221
-0.201
-0.185
-0.158
-0.128
-0.105
-0.084
-0.06
-0.055
-0.052
-0.048
-0.044
-0.04
-0.036
-0.032
-0.03
-0.03
-0.03
-0.035
-0.032
-0.031
-0.036
-0.035
-0.035
-0.034
-0.037
-0.04
-0.035
-0.035
-0.036
-0.033
-0.03
-0.035
-0.036
-0.032
-0.029
-0.03
-0.03
-0.025
-0.028
-0.029
-0.025
-0.025
-0.021
-0.02
-0.02
-0.02
-0.02
-0.016
-0.015
-0.013
-0.01
-0.01
-0.006
-0.005
-0.003
0.0
0.0
0.004
0.006
0.004
0.006
0.01
0.01
0.009
0.012
0.015
0.015
0.015
0.018
0.021
0.019
0.02
0.036
0.045
0.044
0.047
0.055
0.05
0.059
0.067
0.065
0.065
0.063
0.079
0.083
0.083
0.1
0.092
0.094
0.106
0.118
0.13
0.134
0.14
0.135
0.132
0.145
0.148
0.165
0.18
0.179
0.175
0.179
0.182
0.192
0.209
0.215
0.202
0.206
0.208
0.199
0.2
0.196
0.195
0.195
0.195
0.195
0.191
0.186
0.187
0.19
0.185
0.185
0.18
0.171
0.162
0.15
0.142
0.131
0.119
0.106
0.09
0.077
0.069
0.061
0.054
0.05
0.043
0.03
0.022
0.019
0.015
0.011
0.008
0.001
-0.007
-0.01
-0.013
-0.022
-0.026
-0.025
-0.03
-0.039
-0.04
-0.042
-0.045
-0.04
-0.036
-0.032
-0.028
-0.034
-0.05
-0.047
-0.045
-0.043
-0.04
-0.04
-0.036
-0.031
-0.029
-0.03
-0.03
-0.025
-0.028
-0.031
-0.03
-0.03
-0.03
-0.027
-0.025
-0.025
-0.025
-0.03
-0.027
-0.024
-0.025
-0.025
-0.025
-0.026
-0.023
-0.02
-0.025
-0.025
-0.025
-0.025
-0.025
-0.025
-0.025
-0.025
-0.025
-0.026
-0.03
-0.031
-0.027
-0.025
-0.025
-0.025
-0.025
-0.025
-0.025
-0.025
-0.025
-0.025
-0.022
-0.019
-0.02
-0.02
-0.019
-0.026
-0.031
-0.03
-0.03
-0.03
-0.027
-0.024
-0.025
-0.025
-0.025
-0.026
-0.023
-0.02
-0.02
-0.02
-0.02
-0.018
-0.014
-0.015
-0.019
-0.02
-0.022
-0.025
-0.025
-0.034
-0.033
-0.029
-0.03
-0.03
-0.03
-0.03
-0.03
-0.03
-0.03
-0.031
-0.023
-0.021
-0.026
-0.025
-0.025
-0.025
-0.025
-0.025
-0.025
-0.025
-0.025
-0.024
-0.028
-0.04
-0.036
-0.034
-0.035
-0.035
-0.035
-0.035
-0.032
-0.029
-0.03
-0.03
-0.03
-0.03
-0.031
-0.029
-0.025
-0.029
-0.031
-0.029
-0.031
-0.035
-0.031
-0.029
-0.032
-0.035
-0.035
-0.034
-0.039
-0.039
-0.034
-0.035
-0.035
-0.036
-0.033
-0.031
-0.035
-0.032
-0.025
-0.029
-0.036
-0.035
-0.043
-0.045
-0.047
-0.05
-0.045
-0.041
-0.037
-0.033
-0.029
-0.025
-0.021
-0.017
-0.013
-0.009
-0.005
-0.001
0.004
0.021
0.036
0.03
0.029
0.031
0.028
0.026
0.03
0.027
0.021
0.022
0.025
0.02
0.02
0.018
0.013
0.009
0.005
-0.003
-0.009
-0.01
-0.011
-0.015
-0.02
-0.019
-0.025
-0.037
-0.04
-0.035
-0.038
-0.041
-0.04
-0.04
-0.039
-0.044
-0.042
-0.042
-0.055
-0.052
-0.049
-0.051
-0.049
-0.045
-0.045
-0.044
-0.047
-0.05
-0.05
-0.059
-0.058
-0.054
-0.055
-0.055
-0.055
-0.055
-0.055
-0.055
-0.055
-0.051
-0.05
-0.05
-0.05
-0.05
-0.05
-0.051
-0.047
-0.056
-0.08
-0.071
-0.081
-0.107
-0.114
-0.095
-0.078
-0.07
-0.04
0.022
0.1
0.189
0.26
0.288
0.282
0.27
0.264
0.203
0.187
0.191
0.11
0.055
-0.022
-0.099
-0.144
-0.18
-0.225
-0.256
-0.238
-0.197
-0.18
-0.161
-0.137
-0.114
-0.087
-0.06
-0.055
-0.053
-0.047
-0.037
-0.03
-0.034
-0.035
-0.037
-0.04
-0.04
-0.04
-0.038
-0.032
-0.03
-0.03
-0.025
-0.027
-0.031
-0.029
-0.025
-0.025
-0.022
-0.019
-0.021
-0.025
-0.021
-0.02
-0.018
-0.014
-0.015
-0.02
-0.017
-0.014
-0.015
-0.015
-0.011
-0.01
-0.008
-0.005
-0.005
-0.001
0.001
-0.001
0.001
0.005
0.005
0.008
0.01
0.011
0.015
0.015
0.014
0.017
0.02
0.02
0.024
0.024
0.029
0.036
0.035
0.036
0.031
0.033
0.033
0.025
0.041
0.047
0.045
0.044
0.04
0.052
0.059
0.06
0.06
0.06
0.066
0.085
0.087
0.081
0.1
0.114
0.111
0.115
0.126
0.125
0.132
0.141
0.149
0.157
0.165
0.174
0.174
0.182
0.197
0.195
0.194
0.201
0.206
0.213
0.225
0.217
0.217
0.221
0.219
0.215
0.215
0.212
0.209
0.21
0.21
0.206
0.202
0.199
0.201
0.2
0.188
0.182
0.176
0.169
0.165
0.157
0.149
0.141
0.132
0.12
0.107
0.103
0.093
0.076
0.065
0.061
0.054
0.047
0.044
0.04
0.036
0.032
0.027
0.025
0.025
0.017
0.011
0.008
0.004
0.0
-0.005
-0.004
-0.01
-0.014
-0.005
-0.004
-0.006
-0.004
-0.008
-0.02
-0.016
-0.014
-0.015
-0.015
-0.015
-0.015
-0.015
-0.015
-0.014
-0.01
-0.01
-0.01
-0.01
-0.01
-0.01
-0.01
-0.011
-0.008
-0.005
-0.005
-0.005
-0.008
-0.011
-0.01
-0.01
-0.01
-0.011
-0.008
-0.005
-0.005
-0.005
-0.005
-0.005
-0.005
-0.005
-0.009
-0.01
-0.01
-0.01
-0.01
-0.01
-0.007
-0.004
-0.005
-0.005
-0.005
-0.005
-0.005
-0.005
-0.005
-0.005
-0.005
-0.005
-0.005
-0.005
-0.004
-0.011
-0.018
-0.02
-0.02
-0.02
-0.02
-0.02
-0.02
-0.02
-0.02
-0.02
-0.02
-0.02
-0.02
-0.02
-0.02
-0.02
-0.02
-0.02
-0.02
-0.02
-0.02
-0.02
-0.02
-0.02
-0.02
-0.02
-0.02
-0.02
-0.02
-0.02
-0.02
-0.02
-0.02
-0.02
-0.02
-0.02
-0.02
-0.02
-0.02
-0.02
-0.02
-0.02
-0.02
-0.02
-0.021
-0.018
-0.015
-0.02
-0.028
-0.037
-0.039
-0.034
-0.035
-0.035
-0.035
-0.035
-0.035
-0.035
-0.035
-0.035
-0.035
-0.035
-0.035
-0.035
-0.032
-0.029
-0.03
-0.03
-0.03
-0.03
-0.03
-0.03
-0.03
-0.03
-0.033
-0.036
-0.035
-0.035
-0.035
-0.035
-0.036
-0.034
-0.03
-0.034
-0.036
-0.033
-0.029
-0.03
-0.035
-0.032
-0.029
-0.031
-0.035
-0.031
-0.029
-0.03
-0.03
-0.03
-0.03
-0.031
-0.028
-0.025
-0.03
-0.038
-0.047
-0.049
-0.044
-0.045
-0.045
-0.042
-0.037
-0.035
-0.035
-0.031
-0.03
-0.028
-0.025
-0.025
-0.013
-0.001
0.012
0.021
0.02
0.02
0.017
0.014
0.016
0.02
0.016
0.014
0.016
0.014
0.01
0.014
0.016
0.015
0.015
0.015
0.015
0.013
0.006
-0.001
-0.005
-0.009
-0.016
-0.023
-0.025
-0.025
-0.037
-0.045
-0.045
-0.046
-0.05
-0.05
-0.05
-0.049
-0.052
-0.06
-0.06
-0.06
-0.06
-0.059
-0.055
-0.055
-0.056
-0.053
-0.05
-0.05
-0.05
-0.047
-0.044
-0.045
-0.045
-0.041
-0.04
-0.04
-0.04
-0.04
-0.044
-0.045
-0.046
-0.052
-0.06
-0.069
-0.07
-0.072
-0.075
-0.075
-0.079
-0.079
-0.085
-0.098
-0.105
-0.104
-0.113
-0.077
-0.031
-0.03
0.029
0.077
0.153
0.256
0.31
0.338
0.335
0.328
0.322
0.3
0.276
0.251
0.196
0.097
-0.015
-0.085
-0.116
-0.151
-0.194
-0.205
-0.171
-0.165
-0.155
-0.123
-0.105
-0.086
-0.061
-0.044
-0.04
-0.04
-0.037
-0.028
-0.025
-0.024
-0.02
-0.02
-0.018
-0.012
-0.011
-0.015
-0.011
-0.009
-0.011
-0.009
-0.005
-0.005
-0.006
-0.003
0.0
-0.005
-0.006
-0.002
0.0
0.0
0.0
0.0
0.003
0.006
0.005
0.005
0.004
0.009
0.009
0.004
0.005
0.009
0.01
0.01
0.01
0.01
0.014
0.015
0.015
0.015
0.015
0.02
0.017
0.016
0.02
0.02
0.024
0.025
0.027
0.03
0.03
0.03
0.029
0.032
0.035
0.035
0.039
0.04
0.042
0.044
0.04
0.044
0.045
0.046
0.051
0.055
0.055
0.057
0.065
0.07
0.07
0.081
0.095
0.089
0.081
0.1
0.114
0.111
0.115
0.127
0.13
0.145
0.161
0.165
0.167
0.175
0.174
0.184
0.192
0.197
0.21
0.215
0.215
0.214
0.216
0.225
0.23
0.229
0.235
0.239
0.23
0.23
0.227
0.225
0.223
0.215
0.216
0.207
0.195
0.189
0.185
0.177
0.168
0.163
0.158
0.145
0.137
0.126
0.115
0.108
0.1
0.088
0.079
0.071
0.063
0.055
0.043
0.033
0.028
0.024
0.02
0.012
0.002
0.002
0.005
0.005
0.019
0.01
-0.005
-0.004
-0.005
-0.011
0.0
0.003
-0.007
-0.005
-0.003
-0.021
-0.031
-0.024
-0.025
-0.025
-0.025
-0.023
-0.02
-0.02
-0.02
-0.021
-0.018
-0.015
-0.015
-0.015
-0.015
-0.015
-0.014
-0.01
-0.01
-0.01
-0.011
-0.009
-0.005
-0.009
-0.011
-0.01
-0.01
-0.01
-0.01
-0.01
-0.01
-0.01
-0.01
-0.014
-0.015
-0.015
-0.014
-0.01
-0.009
-0.013
-0.015
-0.015
-0.015
-0.014
-0.019
-0.019
-0.014
-0.015
-0.015
-0.015
-0.015
-0.015
-0.015
-0.011
-0.006
-0.008
-0.017
-0.02
-0.011
-0.012
-0.016
-0.015
-0.015
-0.015
-0.015
-0.015
-0.015
-0.015
-0.019
-0.02
-0.02
-0.02
-0.02
-0.02
-0.019
-0.024
-0.031
-0.03
-0.03
-0.03
-0.03
-0.03
-0.03
-0.03
-0.03
-0.03
-0.03
-0.025
-0.012
-0.012
-0.016
-0.015
-0.015
-0.015
-0.015
-0.015
-0.015
-0.015
-0.019
-0.02
-0.02
-0.02
-0.02
-0.02
-0.023
-0.025
-0.026
-0.03
-0.03
-0.03
-0.03
-0.03
-0.03
-0.03
-0.03
-0.03
-0.03
-0.03
-0.03
-0.03
-0.03
-0.03
-0.03
-0.03
-0.03
-0.03
-0.03
-0.03
-0.03
-0.029
-0.034
-0.04
-0.035
-0.035
-0.035
-0.035
-0.034
-0.03
-0.03
-0.03
-0.03
-0.029
-0.025
-0.024
-0.028
-0.03
-0.03
-0.03
-0.026
-0.025
-0.025
-0.025
-0.025
-0.021
-0.02
-0.02
-0.02
-0.02
-0.024
-0.029
-0.03
-0.03
-0.03
-0.03
-0.03
-0.029
-0.032
-0.04
-0.032
-0.027
-0.021
-0.014
-0.015
-0.007
0.0
-0.004
-0.009
0.0
0.0
0.002
0.007
0.011
0.015
0.019
0.024
0.023
0.02
0.025
0.026
0.022
0.018
0.013
0.005
0.001
-0.003
-0.008
-0.009
-0.005
-0.005
-0.002
0.0
0.001
0.005
0.004
0.011
0.017
0.022
0.03
0.034
0.041
0.048
0.049
0.04
0.03
0.035
0.028
0.022
0.04
0.033
0.026
0.023
0.019
0.015
0.007
-0.002
-0.005
-0.007
-0.02
-0.029
-0.028
-0.024
-0.026
-0.03
-0.029
-0.04
-0.045
-0.039
-0.04
-0.04
-0.04
-0.04
-0.04
-0.04
-0.04
-0.04
-0.04
-0.041
-0.045
-0.045
-0.045
-0.045
-0.045
-0.045
-0.045
-0.048
-0.051
-0.05
-0.05
-0.05
-0.047
-0.044
-0.046
-0.05
-0.05
-0.05
-0.05
-0.05
-0.05
-0.054
-0.056
-0.053
-0.049
-0.05
-0.064
-0.089
-0.105
-0.085
-0.03
0.02
0.061
0.131
0.229
0.31
0.354
0.366
0.348
0.336
0.345
0.315
0.277
0.227
0.146
0.04
-0.053
-0.105
-0.15
-0.192
-0.195
-0.173
-0.175
-0.163
-0.127
-0.105
-0.081
-0.057
-0.048
-0.05
-0.045
-0.037
-0.029
-0.023
-0.019
-0.015
-0.011
-0.009
-0.012
-0.015
-0.01
-0.01
-0.01
-0.01
-0.01
-0.01
-0.01
-0.01
-0.01
-0.01
-0.01
-0.005
-0.008
-0.011
-0.009
-0.005
-0.004
-0.009
-0.008
-0.005
-0.005
-0.001
0.0
0.0
0.0
0.0
0.004
0.005
0.007
0.01
0.01
0.01
0.009
0.012
0.015
0.015
0.02
0.018
0.014
0.016
0.02
0.02
0.02
0.02
0.02
0.02
0.02
0.019
0.022
0.025
0.025
0.025
0.024
0.028
0.037
0.04
0.042
0.061
0.072
0.07
0.075
0.079
0.083
0.086
0.084
0.08
0.088
0.091
0.091
0.097
0.105
0.109
0.115
0.125
0.131
0.135
0.142
0.155
0.163
0.166
0.175
0.183
0.188
0.193
0.203
0.21
0.195
0.214
0.223
0.208
0.21
0.212
0.201
0.209
0.227
0.22
0.216
0.213
0.207
0.198
0.19
0.19
0.187
0.185
0.184
0.18
0.185
0.177
0.165
0.158
0.15
0.138
0.128
0.121
0.112
0.1
0.088
0.079
0.069
0.058
0.05
0.042
0.034
0.027
0.024
0.02
0.012
0.007
0.003
0.0
0.0
-0.004
-0.009
-0.009
-0.012
-0.02
-0.012
-0.006
-0.004
-0.007
-0.015
-0.014
-0.021
-0.024
-0.019
-0.02
-0.02
-0.02
-0.02
-0.019
-0.015
-0.015
-0.015
-0.015
-0.015
-0.015
-0.015
-0.012
-0.009
-0.01
-0.01
-0.01
-0.011
-0.008
-0.005
-0.005
-0.005
-0.008
-0.01
-0.01
-0.01
-0.006
-0.005
-0.005
-0.005
-0.005
-0.009
-0.01
-0.01
-0.01
-0.01
-0.01
-0.01
-0.01
-0.01
-0.01
-0.01
-0.01
-0.01
-0.01
-0.01
-0.01
-0.01
-0.01
-0.009
-0.005
-0.005
-0.006
-0.003
0.0
0.0
-0.001
0.003
0.005
0.006
0.005
-0.007
-0.012
-0.009
-0.012
-0.02
-0.016
-0.014
-0.015
-0.015
-0.015
-0.015
-0.015
-0.015
-0.015
-0.015
-0.015
-0.018
-0.021
-0.02
-0.02
-0.02
-0.02
-0.02
-0.02
-0.02
-0.02
-0.02
-0.02
-0.02
-0.02
-0.024
-0.025
-0.025
-0.025
-0.025
-0.033
-0.036
-0.035
-0.035
-0.035
-0.035
-0.035
-0.035
-0.034
-0.03
-0.03
-0.03
-0.03
-0.03
-0.03
-0.03
-0.03
-0.03
-0.03
-0.03
-0.03
-0.03
-0.03
-0.03
-0.03
-0.03
-0.03
-0.03
-0.029
-0.025
-0.025
-0.025
-0.025
-0.025
-0.025
-0.025
-0.026
-0.023
-0.02
-0.02
-0.02
-0.02
-0.02
-0.02
-0.02
-0.02
-0.017
-0.014
-0.015
-0.015
-0.015
-0.015
-0.015
-0.015
-0.015
-0.014
-0.021
-0.026
-0.025
-0.025
-0.025
-0.025
-0.025
-0.026
-0.03
-0.03
-0.03
-0.03
-0.03
-0.03
-0.034
-0.035
-0.035
-0.035
-0.035
-0.035
-0.034
-0.037
-0.04
-0.04
-0.04
-0.04
-0.039
-0.041
-0.045
-0.041
-0.036
-0.035
-0.035
-0.03
-0.025
-0.031
-0.036
-0.035
-0.035
-0.035
-0.035
-0.035
-0.035
-0.03
-0.022
-0.019
-0.022
-0.025
-0.025
-0.029
-0.031
-0.029
-0.032
-0.035
-0.018
-0.017
-0.017
-0.009
-0.01
-0.007
0.005
0.01
0.004
0.005
0.005
0.005
0.006
0.004
0.0
0.008
0.013
0.018
0.028
0.035
0.031
0.027
0.023
0.019
0.015
0.011
0.004
-0.003
-0.006
-0.01
-0.018
-0.023
-0.027
-0.031
-0.035
-0.039
-0.044
-0.043
-0.04
-0.04
-0.04
-0.041
-0.036
-0.03
-0.035
-0.034
-0.041
-0.046
-0.045
-0.045
-0.045
-0.045
-0.045
-0.045
-0.045
-0.045
-0.045
-0.045
-0.045
-0.045
-0.045
-0.045
-0.045
-0.045
-0.045
-0.045
-0.045
-0.045
-0.045
-0.045
-0.045
-0.048
-0.051
-0.049
-0.05
-0.059
-0.058
-0.054
-0.064
-0.085
-0.096
-0.111
-0.078
-0.038
-0.05
-0.005
0.051
0.133
0.23
0.285
0.31
0.294
0.288
0.284
0.24
0.219
0.195
0.133
0.05
-0.02
-0.09
-0.145
-0.198
-0.243
-0.25
-0.217
-0.171
-0.147
-0.145
-0.135
-0.105
-0.064
-0.046
-0.051
-0.05
-0.047
-0.036
-0.027
-0.023
-0.015
-0.015
-0.012
-0.009
-0.01
-0.01
-0.011
-0.006
-0.007
-0.01
-0.005
-0.005
-0.005
-0.005
-0.005
-0.005
0.0
-0.003
-0.006
-0.004
0.0
0.0
0.0
0.0
0.0
0.0
0.005
0.002
0.001
0.006
0.005
0.0
0.003
0.006
0.005
0.005
0.005
0.005
0.007
0.011
0.01
0.005
0.008
0.011
0.01
0.01
0.014
0.016
0.014
0.016
0.02
0.02
0.019
0.022
0.025
0.025
0.036
0.055
0.058
0.049
0.05
0.05
0.05
0.05
0.049
0.05
0.063
0.064
0.072
0.078
0.065
0.084
0.098
0.103
0.103
0.095
0.109
0.133
0.139
0.136
0.15
0.155
0.157
0.164
0.172
0.175
0.173
0.188
0.194
0.192
0.21
0.216
0.208
0.206
0.211
0.215
0.224
0.223
0.217
0.207
0.195
0.199
0.198
0.194
0.195
0.195
0.196
0.191
0.192
0.193
0.18
0.171
0.168
0.16
0.147
0.14
0.137
0.127
0.113
0.104
0.1
0.089
0.074
0.07
0.069
0.06
0.056
0.052
0.048
0.044
0.04
0.036
0.029
0.023
0.019
0.015
0.012
0.003
-0.001
-0.001
-0.005
-0.006
-0.001
-0.001
-0.006
-0.005
-0.001
0.001
-0.002
-0.005
0.0
0.0
0.0
0.0
0.0
0.0
0.001
-0.004
-0.003
0.0
0.0
0.009
0.005
-0.001
0.0
0.0
0.0
0.0
0.0
0.0
0.0
0.0
-0.003
-0.006
-0.005
-0.005
-0.005
-0.004
-0.007
-0.011
-0.01
-0.006
-0.004
-0.007
-0.01
-0.01
-0.01
-0.01
-0.01
-0.011
-0.015
-0.015
-0.015
-0.015
-0.015
-0.015
-0.015
-0.015
-0.015
-0.015
-0.015
-0.015
-0.015
-0.015
-0.015
-0.015
-0.015
-0.015
-0.015
-0.015
-0.015
-0.015
-0.015
-0.015
-0.015
-0.015
-0.016
-0.008
-0.006
-0.011
-0.01
-0.009
-0.013
-0.016
-0.015
-0.015
-0.015
-0.015
-0.015
-0.015
-0.015
-0.015
-0.018
-0.021
-0.02
-0.02
-0.02
-0.02
-0.02
-0.02
-0.02
-0.02
-0.02
-0.02
-0.019
-0.015
-0.011
-0.004
0.001
0.0
0.0
0.0
0.0
0.0
0.0
0.0
0.0
0.0
0.0
0.0
0.0
0.002
-0.013
-0.02
-0.014
-0.015
-0.015
-0.015
-0.015
-0.015
-0.015
-0.015
-0.015
-0.015
-0.015
-0.015
-0.019
-0.02
-0.02
-0.02
-0.02
-0.02
-0.02
-0.02
-0.021
-0.025
-0.025
-0.025
-0.025
-0.025
-0.025
-0.021
-0.019
-0.022
-0.025
-0.025
-0.025
-0.025
-0.025
-0.024
-0.02
-0.02
-0.021
-0.018
-0.015
-0.015
-0.015
-0.017
-0.009
0.0
-0.005
-0.005
-0.005
-0.005
-0.005
-0.005
-0.005
-0.003
-0.013
-0.026
-0.02
-0.02
-0.02
-0.02
-0.02
-0.02
-0.019
-0.024
-0.024
-0.019
-0.02
-0.02
-0.02
-0.02
-0.02
-0.02
-0.022
-0.007
0.0
-0.006
-0.005
-0.005
-0.005
-0.005
-0.005
-0.005
-0.004
-0.009
-0.009
-0.013
-0.025
-0.021
-0.019
-0.02
-0.02
-0.02
-0.024
-0.025
-0.025
-0.025
-0.025
-0.025
-0.025
-0.025
-0.024
-0.02
-0.016
-0.015
-0.015
-0.015
-0.015
-0.011
-0.01
-0.01
-0.01
-0.01
-0.01
-0.009
-0.014
-0.02
-0.015
-0.015
-0.015
-0.015
-0.015
-0.015
-0.011
-0.01
-0.01
-0.01
-0.01
-0.01
-0.011
-0.008
-0.005
-0.005
-0.005
-0.004
-0.007
-0.009
-0.005
-0.009
-0.01
-0.012
-0.015
-0.015
-0.02
-0.017
-0.015
-0.014
-0.01
-0.018
-0.021
-0.021
-0.027
-0.03
-0.022
-0.016
-0.015
-0.015
-0.01
0.007
0.009
0.002
0.0
0.0
-0.001
0.011
0.026
0.03
0.03
0.03
0.03
0.03
0.03
0.03
0.03
0.03
0.03
0.03
0.03
0.031
0.026
0.028
0.036
0.04
0.049
0.048
0.044
0.045
0.045
0.042
0.034
0.028
0.023
0.015
0.011
0.006
0.006
0.003
-0.005
0.0
-0.008
-0.019
-0.02
-0.02
-0.02
-0.019
-0.022
-0.026
-0.025
-0.021
-0.018
-0.026
-0.035
-0.03
-0.03
-0.03
-0.03
-0.03
-0.03
-0.03
-0.03
-0.03
-0.03
-0.03
-0.03
-0.03
-0.03
-0.03
-0.03
-0.03
-0.03
-0.03
-0.03
-0.03
-0.038
-0.044
-0.046
-0.052
-0.06
-0.062
-0.084
-0.098
-0.086
-0.06
-0.02
0.02
0.063
0.121
0.2
0.29
0.356
0.368
0.354
0.355
0.337
0.31
0.277
0.223
0.145
0.069
-0.007
-0.065
-0.114
-0.17
-0.187
-0.168
-0.146
-0.129
-0.1
-0.071
-0.049
-0.033
-0.023
-0.02
-0.02
-0.018
-0.009
0.003
0.01
0.014
0.018
0.021
0.019
0.015
0.019
0.021
0.018
0.014
0.015
0.02
0.017
0.014
0.015
0.015
0.015
0.015
0.015
0.015
0.015
0.015
0.015
0.015
0.015
0.015
0.015
0.015
0.015
0.016
0.02
0.02
0.023
0.026
0.025
0.025
0.029
0.03
0.032
0.036
0.035
0.034
0.038
0.04
0.041
0.045
0.045
0.044
0.047
0.05
0.05
0.05
0.05
0.05
0.05
0.05
0.05
0.053
0.055
0.056
0.06
0.06
0.063
0.065
0.066
0.07
0.069
0.076
0.081
0.079
0.08
0.088
0.093
0.098
0.108
0.12
0.121
0.118
0.127
0.135
0.13
0.145
0.164
0.173
0.176
0.18
0.188
0.196
0.205
0.209
0.205
0.217
0.224
0.226
0.231
0.235
0.234
0.245
0.25
0.244
0.245
0.241
0.236
0.235
0.234
0.23
0.231
0.224
0.219
0.221
0.22
0.208
0.199
0.191
0.184
0.18
0.176
0.17
0.159
0.147
0.135
0.127
0.12
0.109
0.098
0.095
0.088
0.075
0.07
0.069
0.06
0.06
0.058
0.051
0.043
0.035
0.027
0.021
0.02
0.02
0.02
0.024
0.025
0.025
0.024
0.02
0.02
0.017
0.013
0.009
0.005
0.005
0.005
0.005
0.005
0.005
0.005
0.005
0.005
0.005
0.005
0.005
0.005
0.005
0.005
0.005
0.005
0.005
0.005
0.005
0.005
0.005
0.005
0.005
0.005
0.005
0.005
0.005
0.005
0.005
0.005
0.005
0.005
0.005
0.005
0.005
0.005
0.002
-0.001
0.0
0.0
0.0
0.003
0.005
0.005
0.005
0.001
0.0
0.0
0.0
0.0
0.0
0.0
0.0
0.0
0.0
0.004
0.005
0.005
0.005
0.005
0.005
0.005
0.005
0.005
0.005
0.005
0.005
0.005
0.004
0.005
0.014
0.012
0.013
0.012
-0.005
-0.002
0.001
0.0
0.0
0.0
0.0
0.0
0.0
0.0
0.0
-0.004
-0.005
-0.005
-0.005
-0.005
-0.005
-0.005
-0.005
-0.005
-0.005
-0.005
-0.005
-0.005
-0.006
-0.01
-0.01
-0.01
-0.008
-0.005
-0.005
-0.005
-0.005
-0.005
-0.005
-0.005
-0.005
-0.005
-0.005
-0.005
-0.005
-0.01
-0.001
0.007
-0.004
-0.02
-0.017
-0.014
-0.015
-0.015
-0.015
-0.015
-0.012
-0.009
-0.01
-0.01
-0.01
-0.013
-0.016
-0.014
-0.01
-0.01
-0.01
-0.01
-0.01
-0.01
-0.006
-0.005
-0.005
-0.005
-0.005
-0.006
0.002
0.002
-0.006
-0.005
-0.005
-0.005
-0.005
-0.005
-0.005
0.003
0.011
0.004
-0.015
-0.025
-0.021
-0.022
-0.026
-0.024
-0.02
-0.02
-0.021
-0.018
-0.015
-0.015
-0.015
-0.012
-0.009
-0.01
-0.01
-0.006
-0.005
-0.005
-0.005
0.0
0.013
0.013
0.011
0.016
0.015
0.015
0.016
0.013
0.001
-0.01
-0.006
-0.004
-0.006
-0.004
0.0
-0.004
-0.006
-0.003
0.0
0.0
0.0
0.0
0.0
0.0
0.0
0.004
0.005
0.005
0.005
0.005
0.001
0.0
0.0
0.0
0.0
0.0
-0.003
-0.006
-0.005
-0.005
-0.005
-0.005
-0.006
-0.011
-0.015
-0.012
0.001
0.017
0.027
0.03
0.034
0.038
0.041
0.04
0.04
0.044
0.046
0.044
0.046
0.05
0.05
0.049
0.052
0.055
0.055
0.055
0.055
0.054
0.048
0.045
0.053
0.056
0.053
0.049
0.045
0.041
0.036
0.036
0.033
0.025
0.031
0.013
-0.006
-0.004
0.0
-0.004
-0.005
-0.007
-0.01
-0.01
-0.01
-0.01
-0.01
-0.009
-0.005
-0.009
-0.014
-0.015
-0.015
-0.015
-0.019
-0.021
-0.019
-0.022
-0.03
-0.03
-0.03
-0.03
-0.03
-0.03
-0.025
-0.028
-0.031
-0.03
-0.03
-0.03
-0.03
-0.03
-0.03
-0.03
-0.03
-0.03
-0.031
-0.038
-0.05
-0.044
-0.031
-0.052
-0.084
-0.075
-0.06
-0.036
0.013
0.066
0.115
0.214
0.303
0.36
0.381
0.375
0.375
0.366
0.34
0.307
0.265
0.188
0.096
0.007
-0.057
-0.1
-0.162
-0.193
-0.179
-0.147
-0.12
-0.096
-0.071
-0.051
-0.036
-0.02
-0.019
-0.021
-0.019
-0.012
0.0
0.009
0.013
0.017
0.021
0.02
0.015
0.018
0.021
0.019
0.015
0.019
0.021
0.018
0.015
0.02
0.021
0.016
0.016
0.021
0.02
0.015
0.018
0.021
0.02
0.02
0.02
0.019
0.022
0.025
0.025
0.025
0.028
0.031
0.03
0.03
0.03
0.029
0.032
0.035
0.035
0.039
0.041
0.038
0.035
0.04
0.04
0.039
0.042
0.045
0.045
0.044
0.049
0.049
0.044
0.045
0.049
0.05
0.05
0.049
0.045
0.053
0.059
0.061
0.067
0.075
0.08
0.08
0.08
0.08
0.08
0.078
0.09
0.093
0.092
0.105
0.105
0.113
0.124
0.133
0.145
0.145
0.15
0.158
0.169
0.185
0.181
0.187
0.202
0.211
0.215
0.223
0.228
0.233
0.242
0.25
0.254
0.256
0.253
0.25
0.25
0.25
0.249
0.255
0.259
0.25
0.246
0.243
0.236
0.228
0.225
0.226
0.214
0.2
0.193
0.185
0.181
0.174
0.169
0.162
0.145
0.137
0.123
0.11
0.102
0.09
0.082
0.072
0.072
0.074
0.06
0.051
0.051
0.045
0.033
0.03
0.035
0.029
0.025
0.031
0.03
0.022
0.019
0.021
0.018
0.01
0.014
0.016
0.015
0.015
0.015
0.015
0.014
0.017
0.012
-0.005
-0.002
0.002
-0.003
-0.005
0.0
0.0
0.0
0.0
0.001
0.005
0.006
0.002
-0.001
0.001
0.005
0.005
0.004
0.007
0.01
0.01
0.01
0.006
0.006
0.01
0.01
0.01
0.006
0.006
0.01
0.01
0.01
0.007
0.004
0.005
0.005
0.005
0.006
0.003
0.0
0.0
0.0
0.004
0.004
-0.001
0.0
0.0
0.0
-0.001
0.002
0.01
0.006
0.004
0.005
0.005
0.005
0.01
0.001
-0.007
-0.005
-0.005
-0.005
-0.005
-0.005
-0.005
-0.005
-0.005
-0.005
-0.005
-0.005
-0.005
-0.005
-0.005
-0.005
-0.005
-0.005
-0.005
-0.004
-0.007
-0.01
-0.01
-0.01
-0.01
-0.01
-0.01
-0.01
-0.014
-0.015
-0.015
-0.015
-0.015
-0.011
-0.009
-0.013
-0.013
0.0
-0.003
-0.006
-0.005
-0.005
-0.005
-0.005
-0.005
-0.005
-0.005
-0.005
-0.005
-0.005
-0.005
-0.006
-0.01
-0.01
-0.01
-0.01
-0.01
-0.01
-0.01
-0.01
-0.01
-0.01
-0.01
-0.01
-0.01
-0.01
-0.01
-0.01
-0.01
-0.01
-0.01
-0.01
-0.01
-0.01
-0.01
-0.01
-0.01
-0.01
-0.01
-0.01
-0.01
-0.01
-0.01
-0.01
-0.01
-0.01
-0.01
-0.01
-0.01
-0.01
-0.01
-0.01
-0.01
-0.01
-0.01
-0.01
-0.01
-0.01
-0.01
-0.01
-0.01
-0.01
-0.01
-0.01
-0.01
-0.01
-0.01
-0.01
-0.01
-0.01
-0.01
-0.01
-0.055
-0.055
-0.055
-0.055
-0.055
-0.055
-0.052
-0.043
-0.039
-0.04
-0.04
-0.045
-0.042
-0.041
-0.046
-0.045
-0.045
-0.044
-0.047
-0.05
-0.045
-0.045
-0.046
-0.043
-0.04
-0.04
-0.04
-0.04
-0.04
-0.04
-0.04
-0.036
-0.035
-0.035
-0.035
-0.035
-0.035
-0.036
-0.033
-0.03
-0.03
-0.026
-0.024
-0.026
-0.024
-0.02
-0.024
-0.022
-0.02
-0.019
-0.015
-0.015
-0.016
-0.013
-0.01
-0.01
-0.011
-0.007
-0.005
-0.005
0.0
0.004
0.005
0.005
0.005
0.005
0.009
0.013
0.017
0.021
0.025
0.029
0.033
0.037
0.041
0.045
0.046
0.042
0.039
0.042
0.055
0.073
0.075
0.081
0.09
0.09
0.111
0.113
0.112
0.122
0.125
0.132
0.144
0.156
0.168
0.175
0.179
0.184
0.184
0.187
0.195
0.191
0.19
0.189
0.192
0.2
0.192
0.187
0.181
0.174
0.17
0.166
0.162
0.158
0.155
0.15
0.137
0.138
0.138
0.128
0.12
0.112
0.101
0.089
0.077
0.065
0.053
0.044
0.034
0.023
0.02
0.017
0.009
0.003
-0.002
-0.01
-0.014
-0.016
-0.011
-0.013
-0.035
-0.041
-0.036
-0.039
-0.045
-0.04
-0.032
-0.025
-0.03
-0.043
-0.05
-0.05
-0.05
-0.05
-0.05
-0.05
-0.05
-0.051
-0.047
-0.047
-0.06
-0.057
-0.054
-0.055
-0.055
-0.055
-0.055
-0.052
-0.049
-0.05
-0.05
-0.05
-0.05
-0.05
-0.05
-0.05
-0.05
-0.05
-0.05
-0.05
-0.05
-0.046
-0.045
-0.045
-0.045
-0.045
-0.045
-0.044
-0.049
-0.055
-0.05
-0.05
-0.05
-0.05
-0.05
-0.05
-0.046
-0.045
-0.045
-0.045
-0.045
-0.045
-0.046
-0.043
-0.04
-0.04
-0.04
-0.04
-0.04
-0.039
-0.035
-0.035
-0.035
-0.035
-0.035
-0.035
-0.033
-0.048
-0.055
-0.049
-0.05
-0.05
-0.05
-0.05
-0.049
-0.045
-0.045
-0.045
-0.045
-0.046
-0.05
-0.051
-0.047
-0.045
-0.045
-0.045
-0.049
-0.051
-0.048
-0.045
-0.045
-0.045
-0.044
-0.047
-0.05
-0.05
-0.058
-0.064
-0.066
-0.064
-0.065
-0.078
-0.081
-0.08
-0.08
-0.08
-0.08
-0.08
-0.08
-0.08
-0.08
-0.08
-0.08
-0.08
-0.08
-0.08
-0.072
-0.066
-0.065
-0.065
-0.065
-0.065
-0.065
-0.065
-0.065
-0.065
-0.065
-0.065
-0.065
-0.064
-0.06
-0.06
-0.06
-0.06
-0.06
-0.06
-0.056
-0.055
-0.055
-0.055
-0.055
-0.055
-0.056
-0.053
-0.05
-0.055
-0.055
-0.055
-0.055
-0.054
-0.05
-0.05
-0.05
-0.05
-0.05
-0.05
-0.05
-0.053
-0.056
-0.055
-0.055
-0.055
-0.055
-0.055
-0.055
-0.055
-0.055
-0.055
-0.055
-0.055
-0.055
-0.055
-0.058
-0.061
-0.06
-0.06
-0.06
-0.06
-0.06
-0.06
-0.06
-0.064
-0.065
-0.065
-0.065
-0.065
-0.061
-0.06
-0.06
-0.061
-0.065
-0.066
-0.062
-0.059
-0.06
-0.06
-0.06
-0.061
-0.057
-0.057
-0.075
-0.089
-0.088
-0.084
-0.085
-0.085
-0.081
-0.079
-0.081
-0.079
-0.075
-0.075
-0.075
-0.075
-0.075
-0.075
-0.075
-0.072
-0.069
-0.07
-0.07
-0.066
-0.064
-0.066
-0.064
-0.06
-0.059
-0.067
-0.07
-0.071
-0.08
-0.084
-0.091
-0.096
-0.094
-0.09
-0.09
-0.087
-0.084
-0.085
-0.085
-0.081
-0.074
-0.066
-0.058
-0.05
-0.042
-0.033
-0.031
-0.036
-0.035
-0.034
-0.04
-0.035
-0.024
-0.025
-0.021
-0.017
-0.013
-0.009
-0.005
-0.005
-0.005
-0.005
-0.005
-0.005
0.0
-0.008
-0.02
-0.026
-0.03
-0.038
-0.043
-0.049
-0.057
-0.06
-0.056
-0.053
-0.06
-0.064
-0.06
-0.072
-0.077
-0.074
-0.077
-0.085
-0.081
-0.079
-0.08
-0.08
-0.08
-0.08
-0.08
-0.08
-0.08
-0.08
-0.08
-0.08
-0.08
-0.079
-0.075
-0.075
-0.075
-0.075
-0.075
-0.075
-0.075
-0.075
-0.075
-0.075
-0.075
-0.075
-0.075
-0.074
-0.077
-0.09
-0.1
-0.096
-0.1
-0.12
-0.135
-0.124
-0.081
-0.065
-0.065
-0.01
0.075
0.145
0.206
0.254
0.265
0.244
0.238
0.191
0.142
0.16
0.115
0.028
-0.05
-0.11
-0.165
-0.203
-0.262
-0.288
-0.271
-0.255
-0.215
-0.185
-0.164
-0.138
-0.11
-0.094
-0.076
-0.069
-0.07
-0.065
-0.061
-0.057
-0.053
-0.049
-0.045
-0.045
-0.046
-0.043
-0.04
-0.04
-0.04
-0.04
-0.04
-0.039
-0.035
-0.035
-0.036
-0.033
-0.031
-0.035
-0.031
-0.029
-0.031
-0.029
-0.025
-0.029
-0.031
-0.028
-0.025
-0.025
-0.026
-0.021
-0.021
-0.026
-0.025
-0.021
-0.019
-0.021
-0.019
-0.015
-0.014
-0.019
-0.019
-0.014
-0.015
-0.016
-0.012
-0.009
-0.01
-0.01
-0.01
-0.01
-0.01
-0.01
-0.01
-0.006
-0.002
0.002
0.006
0.01
0.01
0.01
0.01
0.019
0.04
0.041
0.036
0.035
0.034
0.035
0.048
0.048
0.045
0.052
0.06
0.06
0.062
0.07
0.074
0.07
0.081
0.098
0.11
0.116
0.12
0.12
0.124
0.137
0.146
0.145
0.152
0.162
0.167
0.171
0.17
0.165
0.171
0.176
0.174
0.175
0.183
0.189
0.19
0.19
0.19
0.186
0.184
0.17
0.153
0.155
0.147
0.146
0.14
0.128
0.125
0.117
0.112
0.106
0.099
0.095
0.083
0.074
0.066
0.059
0.055
0.047
0.039
0.031
0.023
0.015
0.007
0.002
-0.002
-0.006
-0.01
-0.014
-0.015
-0.017
-0.021
-0.02
-0.019
-0.025
-0.035
-0.041
-0.04
-0.04
-0.037
-0.034
-0.035
-0.035
-0.035
-0.034
-0.039
-0.045
-0.04
-0.04
-0.041
-0.038
-0.034
-0.03
-0.03
-0.03
-0.028
-0.024
-0.02
-0.02
-0.02
-0.019
-0.021
-0.025
-0.021
-0.019
-0.022
-0.026
-0.025
-0.021
-0.019
-0.022
-0.025
-0.025
-0.025
-0.025
-0.027
-0.03
-0.03
-0.03
-0.033
-0.035
-0.035
-0.035
-0.035
-0.038
-0.041
-0.04
-0.04
-0.04
-0.04
-0.04
-0.04
-0.04
-0.04
-0.04
-0.04
-0.04
-0.04
-0.04
-0.04
-0.04
-0.04
-0.04
-0.04
-0.04
-0.04
-0.04
-0.04
-0.04
-0.037
-0.033
-0.038
-0.05
-0.05
-0.055
-0.064
-0.064
-0.06
-0.06
-0.06
-0.06
-0.06
-0.06
-0.06
-0.06
-0.06
-0.06
-0.06
-0.06
-0.06
-0.06
-0.06
-0.06
-0.06
-0.06
-0.06
-0.06
-0.06
-0.06
-0.06
-0.06
-0.06
-0.06
-0.056
-0.051
-0.05
-0.05
-0.05
-0.05
-0.05
-0.05
-0.049
-0.045
-0.045
-0.045
-0.045
-0.045
-0.045
-0.041
-0.04
-0.038
-0.035
-0.035
-0.035
-0.035
-0.035
-0.035
-0.035
-0.035
-0.034
-0.037
-0.04
-0.035
-0.034
-0.041
-0.046
-0.045
-0.045
-0.045
-0.046
-0.043
-0.04
-0.04
-0.04
-0.04
-0.04
-0.04
-0.04
-0.04
-0.043
-0.046
-0.045
-0.045
-0.049
-0.051
-0.049
-0.051
-0.055
-0.051
-0.05
-0.048
-0.054
-0.075
-0.072
-0.069
-0.071
-0.069
-0.065
-0.065
-0.066
-0.063
-0.06
-0.06
-0.056
-0.055
-0.054
-0.048
-0.045
-0.057
-0.062
-0.058
-0.063
-0.075
-0.067
-0.064
-0.064
-0.059
-0.055
-0.055
-0.052
-0.05
-0.048
-0.04
-0.039
-0.041
-0.037
-0.028
-0.02
-0.011
-0.008
0.001
0.01
0.005
0.005
0.005
0.005
0.005
0.005
0.006
0.001
0.002
0.005
0.005
0.01
0.005
-0.003
-0.006
-0.01
-0.014
-0.018
-0.021
-0.029
-0.045
-0.046
-0.044
-0.048
-0.057
-0.065
-0.07
-0.067
-0.064
-0.065
-0.065
-0.061
-0.059
-0.063
-0.064
-0.06
-0.064
-0.067
-0.059
-0.05
-0.055
-0.055
-0.055
-0.055
-0.055
-0.055
-0.055
-0.058
-0.061
-0.06
-0.06
-0.065
-0.062
-0.059
-0.061
-0.065
-0.065
-0.064
-0.067
-0.071
-0.07
-0.068
-0.087
-0.109
-0.115
-0.11
-0.102
-0.13
-0.145
-0.124
-0.1
-0.066
-0.021
0.018
0.074
0.17
0.246
0.289
0.305
0.295
0.28
0.293
0.253
0.21
0.178
0.1
0.002
-0.074
-0.121
-0.169
-0.225
-0.24
-0.239
-0.21
-0.175
-0.17
-0.143
-0.115
-0.097
-0.081
-0.065
-0.06
-0.061
-0.058
-0.055
-0.055
-0.051
-0.047
-0.043
-0.04
-0.04
-0.036
-0.034
-0.037
-0.032
-0.02
-0.024
-0.023
-0.019
-0.021
-0.025
-0.021
-0.02
-0.018
-0.015
-0.02
-0.021
-0.017
-0.014
-0.016
-0.02
-0.016
-0.014
-0.018
-0.02
-0.015
-0.015
-0.015
-0.015
-0.015
-0.015
-0.016
-0.011
-0.011
-0.016
-0.015
-0.011
-0.009
-0.011
-0.009
-0.005
-0.005
-0.006
-0.003
0.0
0.0
0.0
-0.001
0.002
0.005
0.005
0.005
0.005
0.007
0.011
0.015
0.019
0.02
0.02
0.019
0.02
0.04
0.053
0.057
0.06
0.06
0.06
0.059
0.064
0.071
0.07
0.076
0.094
0.1
0.103
0.12
0.111
0.118
0.127
0.125
0.13
0.146
0.159
0.171
0.182
0.185
0.182
0.171
0.177
0.191
0.185
0.187
0.204
0.21
0.205
0.205
0.192
0.192
0.193
0.19
0.195
0.191
0.193
0.193
0.191
0.195
0.184
0.169
0.163
0.158
0.145
0.137
0.13
0.119
0.107
0.095
0.087
0.076
0.064
0.052
0.045
0.041
0.035
0.024
0.013
0.01
0.007
-0.002
-0.006
-0.005
-0.01
-0.019
-0.02
-0.022
-0.025
-0.02
-0.023
-0.033
-0.031
-0.026
-0.04
-0.041
-0.037
-0.034
-0.035
-0.035
-0.031
-0.03
-0.027
-0.026
-0.035
-0.032
-0.026
-0.025
-0.025
-0.025
-0.021
-0.017
-0.014
-0.016
-0.02
-0.02
-0.02
-0.02
-0.019
-0.015
-0.015
-0.015
-0.017
-0.021
-0.02
-0.016
-0.015
-0.015
-0.015
-0.015
-0.015
-0.017
-0.025
-0.03
-0.025
-0.025
-0.025
-0.025
-0.025
-0.025
-0.025
-0.025
-0.025
-0.025
-0.025
-0.025
-0.025
-0.025
-0.025
-0.025
-0.025
-0.025
-0.025
-0.025
-0.025
-0.025
-0.025
-0.025
-0.025
-0.025
-0.025
-0.022
-0.019
-0.02
-0.02
-0.02
-0.02
-0.02
-0.021
-0.025
-0.025
-0.025
-0.025
-0.025
-0.025
-0.025
-0.025
-0.025
-0.025
-0.025
-0.025
-0.024
-0.027
-0.03
-0.03
-0.03
-0.03
-0.03
-0.03
-0.03
-0.039
-0.038
-0.034
-0.035
-0.035
-0.035
-0.038
-0.04
-0.04
-0.04
-0.036
-0.035
-0.035
-0.035
-0.035
-0.039
-0.04
-0.04
-0.039
-0.035
-0.035
-0.035
-0.035
-0.036
-0.04
-0.04
-0.04
-0.039
-0.042
-0.055
-0.056
-0.055
-0.055
-0.056
-0.06
-0.06
-0.06
-0.06
-0.06
-0.06
-0.06
-0.06
-0.06
-0.06
-0.06
-0.06
-0.06
-0.06
-0.06
-0.06
-0.06
-0.06
-0.061
-0.067
-0.075
-0.071
-0.07
-0.068
-0.065
-0.065
-0.061
-0.056
-0.055
-0.054
-0.05
-0.05
-0.047
-0.045
-0.044
-0.04
-0.04
-0.041
-0.038
-0.035
-0.04
-0.041
-0.037
-0.033
-0.03
-0.03
-0.034
-0.041
-0.049
-0.049
-0.04
-0.036
-0.031
-0.032
-0.035
-0.035
-0.039
-0.043
-0.048
-0.05
-0.045
-0.037
-0.029
-0.021
-0.013
-0.005
0.007
0.015
0.013
0.01
0.01
0.01
0.011
0.008
0.005
0.005
0.0
0.003
0.003
0.001
0.005
-0.003
-0.005
-0.009
-0.016
-0.015
-0.023
-0.025
-0.026
-0.031
-0.035
-0.04
-0.039
-0.046
-0.055
-0.05
-0.058
-0.059
-0.052
-0.059
-0.075
-0.067
-0.064
-0.065
-0.065
-0.065
-0.065
-0.066
-0.063
-0.06
-0.06
-0.06
-0.06
-0.061
-0.058
-0.05
-0.05
-0.05
-0.05
-0.05
-0.05
-0.05
-0.053
-0.055
-0.056
-0.06
-0.061
-0.058
-0.066
-0.076
-0.07
-0.068
-0.082
-0.092
-0.089
-0.095
-0.12
-0.126
-0.11
-0.081
-0.045
-0.014
0.03
0.095
0.185
0.28
0.325
0.34
0.335
0.322
0.315
0.306
0.265
0.203
0.13
0.035
-0.066
-0.117
-0.146
-0.185
-0.22
-0.229
-0.197
-0.174
-0.165
-0.125
-0.086
-0.075
-0.072
-0.063
-0.055
-0.047
-0.042
-0.038
-0.035
-0.035
-0.035
-0.032
-0.029
-0.03
-0.03
-0.026
-0.024
-0.026
-0.024
-0.02
-0.024
-0.026
-0.022
-0.02
-0.025
-0.025
-0.025
-0.025
-0.025
-0.025
-0.025
-0.025
-0.025
-0.025
-0.025
-0.025
-0.022
-0.019
-0.02
-0.02
-0.02
-0.017
-0.014
-0.015
-0.015
-0.015
-0.015
-0.015
-0.014
-0.01
-0.01
-0.007
-0.005
-0.004
0.0
0.0
0.003
0.005
0.006
0.01
0.01
0.013
0.015
0.015
0.02
0.024
0.025
0.026
0.031
0.035
0.036
0.033
0.041
0.05
0.045
0.045
0.046
0.044
0.047
0.06
0.064
0.068
0.071
0.077
0.09
0.099
0.1
0.102
0.114
0.125
0.124
0.135
0.154
0.159
0.15
0.161
0.171
0.166
0.168
0.185
0.185
0.193
0.205
0.211
0.215
0.217
0.205
0.2
0.206
0.205
0.192
0.189
0.191
0.189
0.185
0.187
0.172
0.166
0.169
0.16
0.157
0.146
0.137
0.134
0.125
0.117
0.109
0.101
0.092
0.08
0.072
0.064
0.055
0.049
0.045
0.033
0.023
0.018
0.014
0.01
0.011
0.004
0.0
-0.001
-0.01
-0.014
-0.021
-0.028
-0.03
-0.03
-0.034
-0.035
-0.035
-0.034
-0.03
-0.03
-0.031
-0.027
-0.026
-0.035
-0.04
-0.037
-0.034
-0.035
-0.035
-0.031
-0.03
-0.03
-0.03
-0.03
-0.034
-0.035
-0.035
-0.035
-0.035
-0.035
-0.038
-0.041
-0.04
-0.04
-0.04
-0.04
-0.04
-0.041
-0.045
-0.045
-0.045
-0.043
-0.039
-0.04
-0.045
-0.042
-0.039
-0.04
-0.04
-0.04
-0.037
-0.034
-0.035
-0.035
-0.035
-0.032
-0.029
-0.03
-0.03
-0.026
-0.024
-0.026
-0.023
-0.015
-0.015
-0.015
-0.015
-0.015
-0.015
-0.01
-0.013
-0.016
-0.015
-0.015
-0.013
-0.027
-0.039
-0.041
-0.045
-0.045
-0.045
-0.045
-0.045
-0.045
-0.049
-0.05
-0.05
-0.05
-0.05
-0.05
-0.051
-0.048
-0.045
-0.045
-0.045
-0.046
-0.041
-0.043
-0.06
-0.057
-0.051
-0.05
-0.05
-0.05
-0.05
-0.05
-0.05
-0.049
-0.045
-0.041
-0.04
-0.04
-0.04
-0.04
-0.04
-0.04
-0.038
-0.034
-0.035
-0.039
-0.04
-0.04
-0.04
-0.04
-0.04
-0.04
-0.041
-0.047
-0.055
-0.055
-0.055
-0.055
-0.055
-0.055
-0.055
-0.057
-0.049
-0.048
-0.07
-0.067
-0.064
-0.066
-0.064
-0.06
-0.06
-0.059
-0.062
-0.065
-0.06
-0.059
-0.064
-0.064
-0.059
-0.06
-0.064
-0.066
-0.063
-0.06
-0.065
-0.065
-0.065
-0.063
-0.059
-0.055
-0.051
-0.05
-0.049
-0.044
-0.04
-0.04
-0.038
-0.048
-0.061
-0.055
-0.055
-0.052
-0.05
-0.049
-0.045
-0.045
-0.046
-0.041
-0.034
-0.035
-0.031
-0.029
-0.031
-0.029
-0.025
-0.025
-0.022
-0.018
-0.014
-0.01
-0.01
-0.007
-0.003
0.001
0.005
0.001
0.0
-0.002
-0.005
-0.005
-0.009
-0.009
-0.014
-0.021
-0.02
-0.024
-0.028
-0.032
-0.035
-0.035
-0.039
-0.041
-0.039
-0.042
-0.055
-0.064
-0.068
-0.071
-0.069
-0.065
-0.065
-0.065
-0.065
-0.064
-0.06
-0.06
-0.06
-0.06
-0.06
-0.06
-0.056
-0.055
-0.055
-0.055
-0.055
-0.049
-0.061
-0.074
-0.075
-0.075
-0.075
-0.072
-0.069
-0.07
-0.07
-0.07
-0.07
-0.07
-0.07
-0.07
-0.07
-0.07
-0.07
-0.07
-0.07
-0.074
-0.076
-0.105
-0.13
-0.1
-0.067
-0.036
0.012
0.077
0.15
0.231
0.294
0.312
0.303
0.3
0.289
0.269
0.238
0.191
0.12
0.029
-0.063
-0.127
-0.163
-0.2
-0.249
-0.249
-0.221
-0.201
-0.185
-0.158
-0.128
-0.105
-0.084
-0.06
-0.055
-0.052
-0.048
-0.044
-0.04
-0.036
-0.032
-0.03
-0.03
-0.03
-0.035
-0.032
-0.031
-0.036
-0.035
-0.035
-0.034
-0.037
-0.04
-0.035
-0.035
-0.036
-0.033
-0.03
-0.035
-0.036
-0.032
-0.029
-0.03
-0.03
-0.025
-0.028
-0.029
-0.025
-0.025
-0.021
-0.02
-0.02
-0.02
-0.02
-0.016
-0.015
-0.013
-0.01
-0.01
-0.006
-0.005
-0.003
0.0
0.0
0.004
0.006
0.004
0.006
0.01
0.01
0.009
0.012
0.015
0.015
0.015
0.018
0.021
0.019
0.02
0.036
0.045
0.044
0.047
0.055
0.05
0.059
0.067
0.065
0.065
0.063
0.079
0.083
0.083
0.1
0.092
0.094
0.106
0.118
0.13
0.134
0.14
0.135
0.132
0.145
0.148
0.165
0.18
0.179
0.175
0.179
0.182
0.192
0.209
0.215
0.202
0.206
0.208
0.199
0.2
0.196
0.195
0.195
0.195
0.195
0.191
0.186
0.187
0.19
0.185
0.185
0.18
0.171
0.162
0.15
0.142
0.131
0.119
0.106
0.09
0.077
0.069
0.061
0.054
0.05
0.043
0.03
0.022
0.019
0.015
0.011
0.008
0.001
-0.007
-0.01
-0.013
-0.022
-0.026
-0.025
-0.03
-0.039
-0.04
-0.042
-0.045
-0.04
-0.036
-0.032
-0.028
-0.034
-0.05
-0.047
-0.045
-0.043
-0.04
-0.04
-0.036
-0.031
-0.029
-0.03
-0.03
-0.025
-0.028
-0.031
-0.03
-0.03
-0.03
-0.027
-0.025
-0.025
-0.025
-0.03
-0.027
-0.024
-0.025
-0.025
-0.025
-0.026
-0.023
-0.02
-0.025
-0.025
-0.025
-0.025
-0.025
-0.025
-0.025
-0.025
-0.025
-0.026
-0.03
-0.031
-0.027
-0.025
-0.025
-0.025
-0.025
-0.025
-0.025
-0.025
-0.025
-0.025
-0.022
-0.019
-0.02
-0.02
-0.019
-0.026
-0.031
-0.03
-0.03
-0.03
-0.027
-0.024
-0.025
-0.025
-0.025
-0.026
-0.023
-0.02
-0.02
-0.02
-0.02
-0.018
-0.014
-0.015
-0.019
-0.02
-0.022
-0.025
-0.025
-0.034
-0.033
-0.029
-0.03
-0.03
-0.03
-0.03
-0.03
-0.03
-0.03
-0.031
-0.023
-0.021
-0.026
-0.025
-0.025
-0.025
-0.025
-0.025
-0.025
-0.025
-0.025
-0.024
-0.028
-0.04
-0.036
-0.034
-0.035
-0.035
-0.035
-0.035
-0.032
-0.029
-0.03
-0.03
-0.03
-0.03
-0.031
-0.029
-0.025
-0.029
-0.031
-0.029
-0.031
-0.035
-0.031
-0.029
-0.032
-0.035
-0.035
-0.034
-0.039
-0.039
-0.034
-0.035
-0.035
-0.036
-0.033
-0.031
-0.035
-0.032
-0.025
-0.029
-0.036
-0.035
-0.043
-0.045
-0.047
-0.05
-0.045
-0.041
-0.037
-0.033
-0.029
-0.025
-0.021
-0.017
-0.013
-0.009
-0.005
-0.001
0.004
0.021
0.036
0.03
0.029
0.031
0.028
0.026
0.03
0.027
0.021
0.022
0.025
0.02
0.02
0.018
0.013
0.009
0.005
-0.003
-0.009
-0.01
-0.011
-0.015
-0.02
-0.019
-0.025
-0.037
-0.04
-0.035
-0.038
-0.041
-0.04
-0.04
-0.039
-0.044
-0.042
-0.042
-0.055
-0.052
-0.049
-0.051
-0.049
-0.045
-0.045
-0.044
-0.047
-0.05
-0.05
-0.059
-0.058
-0.054
-0.055
-0.055
-0.055
-0.055
-0.055
-0.055
-0.055
-0.051
-0.05
-0.05
-0.05
-0.05
-0.05
-0.051
-0.047
-0.056
-0.08
-0.071
-0.081
-0.107
-0.114
-0.095
-0.078
-0.07
-0.04
0.022
0.1
0.189
0.26
0.288
0.282
0.27
0.264
0.203
0.187
0.191
0.11
0.055
-0.022
-0.099
-0.144
-0.18
-0.225
-0.256
-0.238
-0.197
-0.18
-0.161
-0.137
-0.114
-0.087
-0.06
-0.055
-0.053
-0.047
-0.037
-0.03
-0.034
-0.035
-0.037
-0.04
-0.04
-0.04
-0.038
-0.032
-0.03
-0.03
-0.025
-0.027
-0.031
-0.029
-0.025
-0.025
-0.022
-0.019
-0.021
-0.025
-0.021
-0.02
-0.018
-0.014
-0.015
-0.02
-0.017
-0.014
-0.015
-0.015
-0.011
-0.01
-0.008
-0.005
-0.005
-0.001
0.001
-0.001
0.001
0.005
0.005
0.008
0.01
0.011
0.015
0.015
0.014
0.017
0.02
0.02
0.024
0.024
0.029
0.036
0.035
0.036
0.031
0.033
0.033
0.025
0.041
0.047
0.045
0.044
0.04
0.052
0.059
0.06
0.06
0.06
0.066
0.085
0.087
0.081
0.1
0.114
0.111
0.115
0.126
0.125
0.132
0.141
0.149
0.157
0.165
0.174
0.174
0.182
0.197
0.195
0.194
0.201
0.206
0.213
0.225
0.217
0.217
0.221
0.219
0.215
0.215
0.212
0.209
0.21
0.21
0.206
0.202
0.199
0.201
0.2
0.188
0.182
0.176
0.169
0.165
0.157
0.149
0.141
0.132
0.12
0.107
0.103
0.093
0.076
0.065
0.061
0.054
0.047
0.044
0.04
0.036
0.032
0.027
0.025
0.025
0.017
0.011
0.008
0.004
0.0
-0.005
-0.004
-0.01
-0.014
-0.005
-0.004
-0.006
-0.004
-0.008
-0.02
-0.016
-0.014
-0.015
-0.015
-0.015
-0.015
-0.015
-0.015
-0.014
-0.01
-0.01
-0.01
-0.01
-0.01
-0.01
-0.01
-0.011
-0.008
-0.005
-0.005
-0.005
-0.008
-0.011
-0.01
-0.01
-0.01
-0.011
-0.008
-0.005
-0.005
-0.005
-0.005
-0.005
-0.005
-0.005
-0.009
-0.01
-0.01
-0.01
-0.01
-0.01
-0.007
-0.004
-0.005
-0.005
-0.005
-0.005
-0.005
-0.005
-0.005
-0.005
-0.005
-0.005
-0.005
-0.005
-0.004
-0.011
-0.018
-0.02
-0.02
-0.02
-0.02
-0.02
-0.02
-0.02
-0.02
-0.02
-0.02
-0.02
-0.02
-0.02
-0.02
-0.02
-0.02
-0.02
-0.02
-0.02
-0.02
-0.02
-0.02
-0.02
-0.02
-0.02
-0.02
-0.02
-0.02
-0.02
-0.02
-0.02
-0.02
-0.02
-0.02
-0.02
-0.02
-0.02
-0.02
-0.02
-0.02
-0.02
-0.02
-0.02
-0.021
-0.018
-0.015
-0.02
-0.028
-0.037
-0.039
-0.034
-0.035
-0.035
-0.035
-0.035
-0.035
-0.035
-0.035
-0.035
-0.035
-0.035
-0.035
-0.035
-0.032
-0.029
-0.03
-0.03
-0.03
-0.03
-0.03
-0.03
-0.03
-0.03
-0.033
-0.036
-0.035
-0.035
-0.035
-0.035
-0.036
-0.034
-0.03
-0.034
-0.036
-0.033
-0.029
-0.03
-0.035
-0.032
-0.029
-0.031
-0.035
-0.031
-0.029
-0.03
-0.03
-0.03
-0.03
-0.031
-0.028
-0.025
-0.03
-0.038
-0.047
-0.049
-0.044
-0.045
-0.045
-0.042
-0.037
-0.035
-0.035
-0.031
-0.03
-0.028
-0.025
-0.025
-0.013
-0.001
0.012
0.021
0.02
0.02
0.017
0.014
0.016
0.02
0.016
0.014
0.016
0.014
0.01
0.014
0.016
0.015
0.015
0.015
0.015
0.013
0.006
-0.001
-0.005
-0.009
-0.016
-0.023
-0.025
-0.025
-0.037
-0.045
-0.045
-0.046
-0.05
-0.05
-0.05
-0.049
-0.052
-0.06
-0.06
-0.06
-0.06
-0.059
-0.055
-0.055
-0.056
-0.053
-0.05
-0.05
-0.05
-0.047
-0.044
-0.045
-0.045
-0.041
-0.04
-0.04
-0.04
-0.04
-0.044
-0.045
-0.046
-0.052
-0.06
-0.069
-0.07
-0.072
-0.075
-0.075
-0.079
-0.079
-0.085
-0.098
-0.105
-0.104
-0.113
-0.077
-0.031
-0.03
0.029
0.077
0.153
0.256
0.31
0.338
0.335
0.328
0.322
0.3
0.276
0.251
0.196
0.097
-0.015
-0.085
-0.116
-0.151
-0.194
-0.205
-0.171
-0.165
-0.155
-0.123
-0.105
-0.086
-0.061
-0.044
-0.04
-0.04
-0.037
-0.028
-0.025
-0.024
-0.02
-0.02
-0.018
-0.012
-0.011
-0.015
-0.011
-0.009
-0.011
-0.009
-0.005
-0.005
-0.006
-0.003
0.0
-0.005
-0.006
-0.002
0.0
0.0
0.0
0.0
0.003
0.006
0.005
0.005
0.004
0.009
0.009
0.004
0.005
0.009
0.01
0.01
0.01
0.01
0.014
0.015
0.015
0.015
0.015
0.02
0.017
0.016
0.02
0.02
0.024
0.025
0.027
0.03
0.03
0.03
0.029
0.032
0.035
0.035
0.039
0.04
0.042
0.044
0.04
0.044
0.045
0.046
0.051
0.055
0.055
0.057
0.065
0.07
0.07
0.081
0.095
0.089
0.081
0.1
0.114
0.111
0.115
0.127
0.13
0.145
0.161
0.165
0.167
0.175
0.174
0.184
0.192
0.197
0.21
0.215
0.215
0.214
0.216
0.225
0.23
0.229
0.235
0.239
0.23
0.23
0.227
0.225
0.223
0.215
0.216
0.207
0.195
0.189
0.185
0.177
0.168
0.163
0.158
0.145
0.137
0.126
0.115
0.108
0.1
0.088
0.079
0.071
0.063
0.055
0.043
0.033
0.028
0.024
0.02
0.012
0.002
0.002
0.005
0.005
0.019
0.01
-0.005
-0.004
-0.005
-0.011
0.0
0.003
-0.007
-0.005
-0.003
-0.021
-0.031
-0.024
-0.025
-0.025
-0.025
-0.023
-0.02
-0.02
-0.02
-0.021
-0.018
-0.015
-0.015
-0.015
-0.015
-0.015
-0.014
-0.01
-0.01
-0.01
-0.011
-0.009
-0.005
-0.009
-0.011
-0.01
-0.01
-0.01
-0.01
-0.01
-0.01
-0.01
-0.01
-0.014
-0.015
-0.015
-0.014
-0.01
-0.009
-0.013
-0.015
-0.015
-0.015
-0.014
-0.019
-0.019
-0.014
-0.015
-0.015
-0.015
-0.015
-0.015
-0.015
-0.011
-0.006
-0.008
-0.017
-0.02
-0.011
-0.012
-0.016
-0.015
-0.015
-0.015
-0.015
-0.015
-0.015
-0.015
-0.019
-0.02
-0.02
-0.02
-0.02
-0.02
-0.019
-0.024
-0.031
-0.03
-0.03
-0.03
-0.03
-0.03
-0.03
-0.03
-0.03
-0.03
-0.03
-0.025
-0.012
-0.012
-0.016
-0.015
-0.015
-0.015
-0.015
-0.015
-0.015
-0.015
-0.019
-0.02
-0.02
-0.02
-0.02
-0.02
-0.023
-0.025
-0.026
-0.03
-0.03
-0.03
-0.03
-0.03
-0.03
-0.03
-0.03
-0.03
-0.03
-0.03
-0.03
-0.03
-0.03
-0.03
-0.03
-0.03
-0.03
-0.03
-0.03
-0.03
-0.03
-0.029
-0.034
-0.04
-0.035
-0.035
-0.035
-0.035
-0.034
-0.03
-0.03
-0.03
-0.03
-0.029
-0.025
-0.024
-0.028
-0.03
-0.03
-0.03
-0.026
-0.025
-0.025
-0.025
-0.025
-0.021
-0.02
-0.02
-0.02
-0.02
-0.024
-0.029
-0.03
-0.03
-0.03
-0.03
-0.03
-0.029
-0.032
-0.04
-0.032
-0.027
-0.021
-0.014
-0.015
-0.007
0.0
-0.004
-0.009
0.0
0.0
0.002
0.007
0.011
0.015
0.019
0.024
0.023
0.02
0.025
0.026
0.022
0.018
0.013
0.005
0.001
-0.003
-0.008
-0.009
-0.005
-0.005
-0.002
0.0
0.001
0.005
0.004
0.011
0.017
0.022
0.03
0.034
0.041
0.048
0.049
0.04
0.03
0.035
0.028
0.022
0.04
0.033
0.026
0.023
0.019
0.015
0.007
-0.002
-0.005
-0.007
-0.02
-0.029
-0.028
-0.024
-0.026
-0.03
-0.029
-0.04
-0.045
-0.039
-0.04
-0.04
-0.04
-0.04
-0.04
-0.04
-0.04
-0.04
-0.04
-0.041
-0.045
-0.045
-0.045
-0.045
-0.045
-0.045
-0.045
-0.048
-0.051
-0.05
-0.05
-0.05
-0.047
-0.044
-0.046
-0.05
-0.05
-0.05
-0.05
-0.05
-0.05
-0.054
-0.056
-0.053
-0.049
-0.05
-0.064
-0.089
-0.105
-0.085
-0.03
0.02
0.061
0.131
0.229
0.31
0.354
0.366
0.348
0.336
0.345
0.315
0.277
0.227
0.146
0.04
-0.053
-0.105
-0.15
-0.192
-0.195
-0.173
-0.175
-0.163
-0.127
-0.105
-0.081
-0.057
-0.048
-0.05
-0.045
-0.037
-0.029
-0.023
-0.019
-0.015
-0.011
-0.009
-0.012
-0.015
-0.01
-0.01
-0.01
-0.01
-0.01
-0.01
-0.01
-0.01
-0.01
-0.01
-0.01
-0.005
-0.008
-0.011
-0.009
-0.005
-0.004
-0.009
-0.008
-0.005
-0.005
-0.001
0.0
0.0
0.0
0.0
0.004
0.005
0.007
0.01
0.01
0.01
0.009
0.012
0.015
0.015
0.02
0.018
0.014
0.016
0.02
0.02
0.02
0.02
0.02
0.02
0.02
0.019
0.022
0.025
0.025
0.025
0.024
0.028
0.037
0.04
0.042
0.061
0.072
0.07
0.075
0.079
0.083
0.086
0.084
0.08
0.088
0.091
0.091
0.097
0.105
0.109
0.115
0.125
0.131
0.135
0.142
0.155
0.163
0.166
0.175
0.183
0.188
0.193
0.203
0.21
0.195
0.214
0.223
0.208
0.21
0.212
0.201
0.209
0.227
0.22
0.216
0.213
0.207
0.198
0.19
0.19
0.187
0.185
0.184
0.18
0.185
0.177
0.165
0.158
0.15
0.138
0.128
0.121
0.112
0.1
0.088
0.079
0.069
0.058
0.05
0.042
0.034
0.027
0.024
0.02
0.012
0.007
0.003
0.0
0.0
-0.004
-0.009
-0.009
-0.012
-0.02
-0.012
-0.006
-0.004
-0.007
-0.015
-0.014
-0.021
-0.024
-0.019
-0.02
-0.02
-0.02
-0.02
-0.019
-0.015
-0.015
-0.015
-0.015
-0.015
-0.015
-0.015
-0.012
-0.009
-0.01
-0.01
-0.01
-0.011
-0.008
-0.005
-0.005
-0.005
-0.008
-0.01
-0.01
-0.01
-0.006
-0.005
-0.005
-0.005
-0.005
-0.009
-0.01
-0.01
-0.01
-0.01
-0.01
-0.01
-0.01
-0.01
-0.01
-0.01
-0.01
-0.01
-0.01
-0.01
-0.01
-0.01
-0.01
-0.009
-0.005
-0.005
-0.006
-0.003
0.0
0.0
-0.001
0.003
0.005
0.006
0.005
-0.007
-0.012
-0.009
-0.012
-0.02
-0.016
-0.014
-0.015
-0.015
-0.015
-0.015
-0.015
-0.015
-0.015
-0.015
-0.015
-0.018
-0.021
-0.02
-0.02
-0.02
-0.02
-0.02
-0.02
-0.02
-0.02
-0.02
-0.02
-0.02
-0.02
-0.024
-0.025
-0.025
-0.025
-0.025
-0.033
-0.036
-0.035
-0.035
-0.035
-0.035
-0.035
-0.035
-0.034
-0.03
-0.03
-0.03
-0.03
-0.03
-0.03
-0.03
-0.03
-0.03
-0.03
-0.03
-0.03
-0.03
-0.03
-0.03
-0.03
-0.03
-0.03
-0.03
-0.029
-0.025
-0.025
-0.025
-0.025
-0.025
-0.025
-0.025
-0.026
-0.023
-0.02
-0.02
-0.02
-0.02
-0.02
-0.02
-0.02
-0.02
-0.017
-0.014
-0.015
-0.015
-0.015
-0.015
-0.015
-0.015
-0.015
-0.014
-0.021
-0.026
-0.025
-0.025
-0.025
-0.025
-0.025
-0.026
-0.03
-0.03
-0.03
-0.03
-0.03
-0.03
-0.034
-0.035
-0.035
-0.035
-0.035
-0.035
-0.034
-0.037
-0.04
-0.04
-0.04
-0.04
-0.039
-0.041
-0.045
-0.041
-0.036
-0.035
-0.035
-0.03
-0.025
-0.031
-0.036
-0.035
-0.035
-0.035
-0.035
-0.035
-0.035
-0.03
-0.022
-0.019
-0.022
-0.025
-0.025
-0.029
-0.031
-0.029
-0.032
-0.035
-0.018
-0.017
-0.017
-0.009
-0.01
-0.007
0.005
0.01
0.004
0.005
0.005
0.005
0.006
0.004
0.0
0.008
0.013
0.018
0.028
0.035
0.031
0.027
0.023
0.019
0.015
0.011
0.004
-0.003
-0.006
-0.01
-0.018
-0.023
-0.027
-0.031
-0.035
-0.039
-0.044
-0.043
-0.04
-0.04
-0.04
-0.041
-0.036
-0.03
-0.035
-0.034
-0.041
-0.046
-0.045
-0.045
-0.045
-0.045
-0.045
-0.045
-0.045
-0.045
-0.045
-0.045
-0.045
-0.045
-0.045
-0.045
-0.045
-0.045
-0.045
-0.045
-0.045
-0.045
-0.045
-0.045
-0.045
-0.048
-0.051
-0.049
-0.05
-0.059
-0.058
-0.054
-0.064
-0.085
-0.096
-0.111
-0.078
-0.038
-0.05
-0.005
0.051
0.133
0.23
0.285
0.31
0.294
0.288
0.284
0.24
0.219
0.195
0.133
0.05
-0.02
-0.09
-0.145
-0.198
-0.243
-0.25
-0.217
-0.171
-0.147
-0.145
-0.135
-0.105
-0.064
-0.046
-0.051
-0.05
-0.047
-0.036
-0.027
-0.023
-0.015
-0.015
-0.012
-0.009
-0.01
-0.01
-0.011
-0.006
-0.007
-0.01
-0.005
-0.005
-0.005
-0.005
-0.005
-0.005
0.0
-0.003
-0.006
-0.004
0.0
0.0
0.0
0.0
0.0
0.0
0.005
0.002
0.001
0.006
0.005
0.0
0.003
0.006
0.005
0.005
0.005
0.005
0.007
0.011
0.01
0.005
0.008
0.011
0.01
0.01
0.014
0.016
0.014
0.016
0.02
0.02
0.019
0.022
0.025
0.025
0.036
0.055
0.058
0.049
0.05
0.05
0.05
0.05
0.049
0.05
0.063
0.064
0.072
0.078
0.065
0.084
0.098
0.103
0.103
0.095
0.109
0.133
0.139
0.136
0.15
0.155
0.157
0.164
0.172
0.175
0.173
0.188
0.194
0.192
0.21
0.216
0.208
0.206
0.211
0.215
0.224
0.223
0.217
0.207
0.195
0.199
0.198
0.194
0.195
0.195
0.196
0.191
0.192
0.193
0.18
0.171
0.168
0.16
0.147
0.14
0.137
0.127
0.113
0.104
0.1
0.089
0.074
0.07
0.069
0.06
0.056
0.052
0.048
0.044
0.04
0.036
0.029
0.023
0.019
0.015
0.012
0.003
-0.001
-0.001
-0.005
-0.006
-0.001
-0.001
-0.006
-0.005
-0.001
0.001
-0.002
-0.005
0.0
0.0
0.0
0.0
0.0
0.0
0.001
-0.004
-0.003
0.0
0.0
0.009
0.005
-0.001
0.0
0.0
0.0
0.0
0.0
0.0
0.0
0.0
-0.003
-0.006
-0.005
-0.005
-0.005
-0.004
-0.007
-0.011
-0.01
-0.006
-0.004
-0.007
-0.01
-0.01
-0.01
-0.01
-0.01
-0.011
-0.015
-0.015
-0.015
-0.015
-0.015
-0.015
-0.015
-0.015
-0.015
-0.015
-0.015
-0.015
-0.015
-0.015
-0.015
-0.015
-0.015
-0.015
-0.015
-0.015
-0.015
-0.015
-0.015
-0.015
-0.015
-0.015
-0.016
-0.008
-0.006
-0.011
-0.01
-0.009
-0.013
-0.016
-0.015
-0.015
-0.015
-0.015
-0.015
-0.015
-0.015
-0.015
-0.018
-0.021
-0.02
-0.02
-0.02
-0.02
-0.02
-0.02
-0.02
-0.02
-0.02
-0.02
-0.019
-0.015
-0.011
-0.004
0.001
0.0
0.0
0.0
0.0
0.0
0.0
0.0
0.0
0.0
0.0
0.0
0.0
0.002
-0.013
-0.02
-0.014
-0.015
-0.015
-0.015
-0.015
-0.015
-0.015
-0.015
-0.015
-0.015
-0.015
-0.015
-0.019
-0.02
-0.02
-0.02
-0.02
-0.02
-0.02
-0.02
-0.021
-0.025
-0.025
-0.025
-0.025
-0.025
-0.025
-0.021
-0.019
-0.022
-0.025
-0.025
-0.025
-0.025
-0.025
-0.024
-0.02
-0.02
-0.021
-0.018
-0.015
-0.015
-0.015
-0.017
-0.009
0.0
-0.005
-0.005
-0.005
-0.005
-0.005
-0.005
-0.005
-0.003
-0.013
-0.026
-0.02
-0.02
-0.02
-0.02
-0.02
-0.02
-0.019
-0.024
-0.024
-0.019
-0.02
-0.02
-0.02
-0.02
-0.02
-0.02
-0.022
-0.007
0.0
-0.006
-0.005
-0.005
-0.005
-0.005
-0.005
-0.005
-0.004
-0.009
-0.009
-0.013
-0.025
-0.021
-0.019
-0.02
-0.02
-0.02
-0.024
-0.025
-0.025
-0.025
-0.025
-0.025
-0.025
-0.025
-0.024
-0.02
-0.016
-0.015
-0.015
-0.015
-0.015
-0.011
-0.01
-0.01
-0.01
-0.01
-0.01
-0.009
-0.014
-0.02
-0.015
-0.015
-0.015
-0.015
-0.015
-0.015
-0.011
-0.01
-0.01
-0.01
-0.01
-0.01
-0.011
-0.008
-0.005
-0.005
-0.005
-0.004
-0.007
-0.009
-0.005
-0.009
-0.01
-0.012
-0.015
-0.015
-0.02
-0.017
-0.015
-0.014
-0.01
-0.018
-0.021
-0.021
-0.027
-0.03
-0.022
-0.016
-0.015
-0.015
-0.01
0.007
0.009
0.002
0.0
0.0
-0.001
0.011
0.026
0.03
0.03
0.03
0.03
0.03
0.03
0.03
0.03
0.03
0.03
0.03
0.03
0.031
0.026
0.028
0.036
0.04
0.049
0.048
0.044
0.045
0.045
0.042
0.034
0.028
0.023
0.015
0.011
0.006
0.006
0.003
-0.005
0.0
-0.008
-0.019
-0.02
-0.02
-0.02
-0.019
-0.022
-0.026
-0.025
-0.021
-0.018
-0.026
-0.035
-0.03
-0.03
-0.03
-0.03
-0.03
-0.03
-0.03
-0.03
-0.03
-0.03
-0.03
-0.03
-0.03
-0.03
-0.03
-0.03
-0.03
-0.03
-0.03
-0.03
-0.03
-0.038
-0.044
-0.046
-0.052
-0.06
-0.062
-0.084
-0.098
-0.086
-0.06
-0.02
0.02
0.063
0.121
0.2
0.29
0.356
0.368
0.354
0.355
0.337
0.31
0.277
0.223
0.145
0.069
-0.007
-0.065
-0.114
-0.17
-0.187
-0.168
-0.146
-0.129
-0.1
-0.071
-0.049
-0.033
-0.023
-0.02
-0.02
-0.018
-0.009
0.003
0.01
0.014
0.018
0.021
0.019
0.015
0.019
0.021
0.018
0.014
0.015
0.02
0.017
0.014
0.015
0.015
0.015
0.015
0.015
0.015
0.015
0.015
0.015
0.015
0.015
0.015
0.015
0.015
0.015
0.016
0.02
0.02
0.023
0.026
0.025
0.025
0.029
0.03
0.032
0.036
0.035
0.034
0.038
0.04
0.041
0.045
0.045
0.044
0.047
0.05
0.05
0.05
0.05
0.05
0.05
0.05
0.05
0.053
0.055
0.056
0.06
0.06
0.063
0.065
0.066
0.07
0.069
0.076
0.081
0.079
0.08
0.088
0.093
0.098
0.108
0.12
0.121
0.118
0.127
0.135
0.13
0.145
0.164
0.173
0.176
0.18
0.188
0.196
0.205
0.209
0.205
0.217
0.224
0.226
0.231
0.235
0.234
0.245
0.25
0.244
0.245
0.241
0.236
0.235
0.234
0.23
0.231
0.224
0.219
0.221
0.22
0.208
0.199
0.191
0.184
0.18
0.176
0.17
0.159
0.147
0.135
0.127
0.12
0.109
0.098
0.095
0.088
0.075
0.07
0.069
0.06
0.06
0.058
0.051
0.043
0.035
0.027
0.021
0.02
0.02
0.02
0.024
0.025
0.025
0.024
0.02
0.02
0.017
0.013
0.009
0.005
0.005
0.005
0.005
0.005
0.005
0.005
0.005
0.005
0.005
0.005
0.005
0.005
0.005
0.005
0.005
0.005
0.005
0.005
0.005
0.005
0.005
0.005
0.005
0.005
0.005
0.005
0.005
0.005
0.005
0.005
0.005
0.005
0.005
0.005
0.005
0.005
0.002
-0.001
0.0
0.0
0.0
0.003
0.005
0.005
0.005
0.001
0.0
0.0
0.0
0.0
0.0
0.0
0.0
0.0
0.0
0.004
0.005
0.005
0.005
0.005
0.005
0.005
0.005
0.005
0.005
0.005
0.005
0.005
0.004
0.005
0.014
0.012
0.013
0.012
-0.005
-0.002
0.001
0.0
0.0
0.0
0.0
0.0
0.0
0.0
0.0
-0.004
-0.005
-0.005
-0.005
-0.005
-0.005
-0.005
-0.005
-0.005
-0.005
-0.005
-0.005
-0.005
-0.006
-0.01
-0.01
-0.01
-0.008
-0.005
-0.005
-0.005
-0.005
-0.005
-0.005
-0.005
-0.005
-0.005
-0.005
-0.005
-0.005
-0.01
-0.001
0.007
-0.004
-0.02
-0.017
-0.014
-0.015
-0.015
-0.015
-0.015
-0.012
-0.009
-0.01
-0.01
-0.01
-0.013
-0.016
-0.014
-0.01
-0.01
-0.01
-0.01
-0.01
-0.01
-0.006
-0.005
-0.005
-0.005
-0.005
-0.006
0.002
0.002
-0.006
-0.005
-0.005
-0.005
-0.005
-0.005
-0.005
0.003
0.011
0.004
-0.015
-0.025
-0.021
-0.022
-0.026
-0.024
-0.02
-0.02
-0.021
-0.018
-0.015
-0.015
-0.015
-0.012
-0.009
-0.01
-0.01
-0.006
-0.005
-0.005
-0.005
0.0
0.013
0.013
0.011
0.016
0.015
0.015
0.016
0.013
0.001
-0.01
-0.006
-0.004
-0.006
-0.004
0.0
-0.004
-0.006
-0.003
0.0
0.0
0.0
0.0
0.0
0.0
0.0
0.004
0.005
0.005
0.005
0.005
0.001
0.0
0.0
0.0
0.0
0.0
-0.003
-0.006
-0.005
-0.005
-0.005
-0.005
-0.006
-0.011
-0.015
-0.012
0.001
0.017
0.027
0.03
0.034
0.038
0.041
0.04
0.04
0.044
0.046
0.044
0.046
0.05
0.05
0.049
0.052
0.055
0.055
0.055
0.055
0.054
0.048
0.045
0.053
0.056
0.053
0.049
0.045
0.041
0.036
0.036
0.033
0.025
0.031
0.013
-0.006
-0.004
0.0
-0.004
-0.005
-0.007
-0.01
-0.01
-0.01
-0.01
-0.01
-0.009
-0.005
-0.009
-0.014
-0.015
-0.015
-0.015
-0.019
-0.021
-0.019
-0.022
-0.03
-0.03
-0.03
-0.03
-0.03
-0.03
-0.025
-0.028
-0.031
-0.03
-0.03
-0.03
-0.03
-0.03
-0.03
-0.03
-0.03
-0.03
-0.031
-0.038
-0.05
-0.044
-0.031
-0.052
-0.084
-0.075
-0.06
-0.036
0.013
0.066
0.115
0.214
0.303
0.36
0.381
0.375
0.375
0.366
0.34
0.307
0.265
0.188
0.096
0.007
-0.057
-0.1
-0.162
-0.193
-0.179
-0.147
-0.12
-0.096
-0.071
-0.051
-0.036
-0.02
-0.019
-0.021
-0.019
-0.012
0.0
0.009
0.013
0.017
0.021
0.02
0.015
0.018
0.021
0.019
0.015
0.019
0.021
0.018
0.015
0.02
0.021
0.016
0.016
0.021
0.02
0.015
0.018
0.021
0.02
0.02
0.02
0.019
0.022
0.025
0.025
0.025
0.028
0.031
0.03
0.03
0.03
0.029
0.032
0.035
0.035
0.039
0.041
0.038
0.035
0.04
0.04
0.039
0.042
0.045
0.045
0.044
0.049
0.049
0.044
0.045
0.049
0.05
0.05
0.049
0.045
0.053
0.059
0.061
0.067
0.075
0.08
0.08
0.08
0.08
0.08
0.078
0.09
0.093
0.092
0.105
0.105
0.113
0.124
0.133
0.145
0.145
0.15
0.158
0.169
0.185
0.181
0.187
0.202
0.211
0.215
0.223
0.228
0.233
0.242
0.25
0.254
0.256
0.253
0.25
0.25
0.25
0.249
0.255
0.259
0.25
0.246
0.243
0.236
0.228
0.225
0.226
0.214
0.2
0.193
0.185
0.181
0.174
0.169
0.162
0.145
0.137
0.123
0.11
0.102
0.09
0.082
0.072
0.072
0.074
0.06
0.051
0.051
0.045
0.033
0.03
0.035
0.029
0.025
0.031
0.03
0.022
0.019
0.021
0.018
0.01
0.014
0.016
0.015
0.015
0.015
0.015
0.014
0.017
0.012
-0.005
-0.002
0.002
-0.003
-0.005
0.0
0.0
0.0
0.0
0.001
0.005
0.006
0.002
-0.001
0.001
0.005
0.005
0.004
0.007
0.01
0.01
0.01
0.006
0.006
0.01
0.01
0.01
0.006
0.006
0.01
0.01
0.01
0.007
0.004
0.005
0.005
0.005
0.006
0.003
0.0
0.0
0.0
0.004
0.004
-0.001
0.0
0.0
0.0
-0.001
0.002
0.01
0.006
0.004
0.005
0.005
0.005
0.01
0.001
-0.007
-0.005
-0.005
-0.005
-0.005
-0.005
-0.005
-0.005
-0.005
-0.005
-0.005
-0.005
-0.005
-0.005
-0.005
-0.005
-0.005
-0.005
-0.005
-0.004
-0.007
-0.01
-0.01
-0.01
-0.01
-0.01
-0.01
-0.01
-0.014
-0.015
-0.015
-0.015
-0.015
-0.011
-0.009
-0.013
-0.013
0.0
-0.003
-0.006
-0.005
-0.005
-0.005
-0.005
-0.005
-0.005
-0.005
-0.005
-0.005
-0.005
-0.005
-0.006
-0.01
-0.01
-0.01
-0.01
-0.01
-0.01
-0.01
-0.01
-0.01
-0.01
-0.01
-0.01
-0.01
-0.01
-0.01
-0.01
-0.01
-0.01
-0.01
-0.01
-0.01
-0.01
-0.01
-0.01
-0.01
-0.01
-0.01
-0.01
-0.01
-0.01
-0.01
-0.01
-0.01
-0.01
-0.01
-0.01
-0.01
-0.01
-0.01
-0.01
-0.01
-0.01
-0.01
-0.01
-0.01
-0.01
-0.01
-0.01
-0.01
-0.01
-0.01
-0.01
-0.01
-0.01
-0.01
-0.01
-0.01
-0.01
-0.01
-0.01
